##TITLE=
##JCAMP-DX=5.01  $$ Nicolet v. 521
##DATATYPE=INFRARED SPECTRUM
##ORIGIN=UNSW
##OWNER=Nicolet
##LONGDATE=2011/06/08
##TIME=09:41:04
##DATA PROCESSING=
##XUNITS=1/CM
##YUNITS=TRANSMITTANCE
##FIRSTX=651.821777
##LASTX=4001.568604
##FIRSTY=0.829388
##MAXX=4001.568604
##MINX=651.821777
##MAXY=0.993989
##MINY=0.649981
##XFACTOR=1.000000
##YFACTOR=1.000000E-009
##NPOINTS=1738
##DELTAX=1.928467
##XYDATA=(X++(Y..Y))
651.822 829388096 822447040 814163200 808740544 806202496 805115520 
663.393 804470848 802381440 802409216 807288512 807138496 807330368 
674.963 807458944 805154176 797267328 783650688 767374528 753173504 
686.534 743357056 738876928 739429632 743508672 750501312 760760640 
698.105 774937280 791291712 808312256 823875264 832896128 831849152 
709.676 820493696 804381440 793351360 791039744 796539712 807778752 
721.247 821102912 831572672 837879872 839293440 837153536 834079744 
732.817 832250752 831478016 831884032 834360512 838000576 842681472 
744.388 850376960 859608320 867960960 874525440 879031168 880891520 
755.959 879724992 878054720 876773760 876057152 875892544 876498944 
767.530 878053760 880123008 881990784 883503104 884377600 884576768 
779.101 883878848 882371200 879412864 876020224 872648768 867710592 
790.671 861606848 856653952 854578560 856138176 861070336 864829056 
802.242 862856960 858148864 853589952 850169664 847827712 844349312 
813.813 839681344 834721024 828781504 820903232 811601664 800130176 
825.384 785542208 768264320 750702720 737291264 733426112 739875136 
836.955 754209216 772424640 791379840 805797184 811830400 807822016 
848.525 796252608 783711104 776609600 778179008 787529152 801056192 
860.096 814903424 825225088 829557312 826566208 815116608 799036160 
871.667 786505152 785696960 799173440 823509120 852894336 881944448 
883.238 906602240 924109632 934561536 940637184 943917440 945336832 
894.809 945064384 943864832 941944128 939561856 936353856 932497344 
906.379 928551936 924166272 919404800 914839232 910897152 907482368 
917.950 904928640 903262464 902261888 902109696 903024576 904603456 
929.521 906801920 909717376 913150336 916633216 920297600 923488640 
941.092 925716864 927132096 928193152 928968512 929156928 929126592 
952.663 928811008 927745792 925998592 923798400 920982272 917318592 
964.233 913688832 910374144 906707136 903054144 899604032 896926144 
975.804 894985408 893514880 892130432 890117248 886933184 883075776 
987.375 878894272 873970496 868969472 865045184 862419584 861477824 
998.946 861169216 860235968 857772736 851465408 839635392 823802560 
1010.517 805456768 789785984 785264064 795867136 813177216 826196800 
1022.087 829139840 822807680 811827520 799976192 788794048 778426304 
1033.658 769861312 763287296 758464192 754949184 753024576 752615872 
1045.229 754127424 757431744 762394688 768168640 774841600 781227008 
1056.800 787356096 792920000 798010496 802345728 805280128 805734720 
1068.371 802960640 797431552 792573376 791706688 793299712 793403328 
1079.941 792385536 795662144 803958848 812351360 815062336 810926656 
1091.512 801610560 787840896 769439744 748264704 726060608 705603712 
1103.083 690280640 684855488 692079360 711504576 738537728 768048320 
1114.654 795228480 817720512 834462912 846471104 855509312 862699968 
1126.225 868159232 870932416 870704832 867183488 860092608 848644992 
1137.795 831414016 807638720 778219008 745900288 715928512 694723712 
1149.366 686573056 693538688 717801600 757249216 803024448 837459776 
1160.937 846434496 832788928 809583360 787638080 776150592 780281920 
1172.508 797823040 822020160 848001408 872986752 894217088 909315648 
1184.079 917985664 921000000 920402240 917606592 912843200 905965376 
1195.649 897530240 887606784 875867968 863803264 853497600 846910272 
1207.220 844360064 844052672 842525760 837527680 828069248 814990848 
1218.791 799214720 781679616 763145664 744407936 725766592 707794624 
1230.362 691135168 676571456 664533632 655685376 650831616 649980672 
1241.933 653309696 660529088 671233280 684599680 701172736 720355072 
1253.503 741523456 763984768 787376832 810589952 832578496 851414656 
1265.074 866535040 877794880 885486464 890304320 892786688 892859968 
1276.645 890740672 886548224 880093568 871649792 862027712 852070144 
1288.216 841980160 831415424 821915072 817997696 822792064 833704512 
1299.787 844464960 851638464 854652416 854829184 854340416 854800064 
1311.357 856021824 856139840 853064640 847621696 841691584 837057728 
1322.928 835226496 837716160 844908096 856369408 870409408 885010752 
1334.499 898400320 909775616 918887616 925281472 928170944 929669440 
1346.070 931391424 932827200 933779840 934381504 934692928 934193792 
1357.641 932009280 927496960 921756224 917568384 917484544 921484224 
1369.211 926738560 929643648 930917824 931606016 930795904 929181056 
1380.782 926257216 921698688 917404032 916020032 917146560 918326464 
1392.353 918722432 918080768 915892928 911335168 904363456 897146688 
1403.924 891429504 887108608 883147840 880392704 879088512 879921856 
1415.495 883456960 889443520 896800832 901532928 903956480 906094528 
1427.065 906461056 906605440 906825920 906000128 904556480 903485056 
1438.636 901150976 898115840 895148416 892259072 889877824 888190208 
1450.207 886094912 883961472 882112448 880585408 880441792 877134528 
1461.778 873398528 870976128 870803072 869889152 867397696 863350208 
1473.349 856546688 845596032 829075008 807122240 779848704 747447872 
1484.919 717107712 700153472 708636608 749513344 791387648 818967616 
1496.490 835262848 833384832 818051072 804627072 798667968 813556032 
1508.061 860175424 887663168 905662016 920034560 930252928 937719360 
1519.632 940326912 941280832 941233344 939998464 937983040 934275200 
1531.203 929889664 925667200 921271808 917275840 912987200 911035520 
1542.773 910418368 910903680 910670464 911348800 913865216 915679616 
1554.344 916918464 918255744 918984064 923976192 924300224 924156416 
1565.915 921918208 918345664 912092352 902466432 890603328 871856768 
1577.486 847329792 827846976 812304128 800247808 796385600 802938432 
1589.057 820385344 843900864 868831104 891221760 907794880 916524352 
1600.627 919815744 919614720 917392512 914722432 913540544 914057600 
1612.198 915920320 918549568 922399872 929241280 934608896 938322688 
1623.769 941840064 944562048 946199616 947222016 947308800 946246400 
1635.340 944164096 943522112 942774016 940888128 938552000 935841728 
1646.911 933742592 931790720 928377664 924380352 923814208 923454080 
1658.481 922139328 920777600 920361152 920721344 920995328 921551680 
1670.052 924173376 926824960 928608256 931950848 936400000 940799424 
1681.623 944601600 948686976 954941376 959581312 963999168 967291840 
1693.194 969779520 971560832 974613440 976596992 976810176 978990080 
1704.765 981166208 981594368 981809600 982031296 982270144 982561920 
1716.335 982427456 981139136 979553856 979078144 977902592 976226624 
1727.906 974713792 973647616 972210496 969732992 967592640 967475968 
1739.477 967022080 967153856 968921280 970805760 972805120 975617856 
1751.048 977952256 979595520 981174464 982953728 984500352 985199232 
1762.619 985188288 985197760 985494720 985862208 985811584 984896320 
1774.189 984760832 985745536 986293504 986561152 986647424 986707136 
1785.760 986978240 987007360 987349696 987702208 987687936 987936960 
1797.331 988301312 988434432 988133248 988070848 988326592 988577984 
1808.902 989034880 989756416 989954432 989944320 990110720 990053504 
1820.473 989710016 989626752 989844608 989927232 990098432 990182336 
1832.043 990038976 990095232 989970048 989917888 989783488 990073408 
1843.614 989970752 990011456 990704064 990702080 989839936 989269760 
1855.185 989226240 989397888 989264000 989134528 989051456 989063808 
1866.756 989331264 989619648 989305408 988655552 987979840 987462848 
1878.327 987262400 986969280 986341312 986010048 986159040 986044288 
1889.897 985732800 984992448 984243264 984079872 984207104 983737344 
1901.468 982908800 982268672 982155392 982575616 983288960 983686208 
1913.039 984017856 984494528 984925632 985406976 986036480 986641664 
1924.610 987100224 987185344 987023040 987244288 987914816 988598400 
1936.181 988474304 987887424 988235200 989473408 989610880 988757888 
1947.751 988557568 988878080 989312064 989877632 990193472 990246976 
1959.322 990355328 990546432 989693824 989266816 990036800 990466304 
1970.893 990573120 990402688 990612416 990932992 989121600 987060096 
1982.464 986913472 987726528 988033600 988291392 989213568 990157568 
1994.035 990488832 989877568 989783168 990694016 991049088 991000064 
2005.605 991029184 989939136 989246528 989537280 989434048 988897600 
2017.176 988655488 988694976 989178112 988504384 987470784 987723648 
2028.747 988331456 988357760 987781632 987053632 985658752 984383744 
2040.318 984863808 985968192 985877056 985291264 984953408 984383936 
2051.889 984585856 986177536 987320384 987601472 987440256 987584128 
2063.459 987988736 987970112 987270656 986823360 987012608 987305344 
2075.030 987056576 986499456 985900352 985765504 986419840 986893440 
2086.601 986869568 986921408 987090176 987452992 987871104 987549184 
2098.172 987002944 986968000 987279232 987598720 987621184 987638656 
2109.743 987834304 987986176 988224320 988014464 988143936 988802688 
2121.313 989188672 989300096 989443648 989804032 990621248 991513856 
2132.884 992008896 991698176 990799808 990254592 990274880 990585408 
2144.455 990810496 991219712 991731968 991872000 992539072 993650752 
2156.026 993988928 993165696 990059840 987290432 986531136 987302336 
2167.597 987654272 987756416 988415168 989008576 988581568 987902080 
2179.167 988553472 989119552 988511552 988257600 988556544 988615552 
2190.738 988403904 988477568 988848896 988975296 988680576 988397312 
2202.309 988466240 988668800 988923200 988557440 988076928 988116608 
2213.880 988659456 988495808 987700224 987452096 987290752 987296128 
2225.451 987947776 988245696 987974272 987864640 987816704 987974720 
2237.021 988068032 987827328 987372160 987284992 987246464 987205504 
2248.592 987335104 987462720 987473216 987211200 986718656 986381376 
2260.163 986487424 986675136 986924672 986914368 986542656 986386048 
2271.734 986136320 986066752 985918720 985747520 985820928 985897152 
2283.305 985651840 985360128 985496448 985949376 986216704 986144704 
2294.875 986054912 986094336 986215232 986318144 986313408 986272896 
2306.446 986394496 986365760 985969792 985762880 985852032 985708992 
2318.017 985181440 984708992 984216000 983657536 984196800 985433280 
2329.588 986193984 986221376 985893312 985673152 985463488 985247872 
2341.159 985255360 985591104 985988800 985896832 985660928 985761216 
2352.729 985896384 985603968 985116480 984956288 984683008 984713152 
2364.300 985432640 985577920 985672320 985597312 985351936 985150784 
2375.871 985182784 985118400 984911296 984792704 984812992 984880960 
2387.442 984926528 984878336 984711104 984505920 984410240 984561984 
2399.013 984545920 984372480 984199616 984161536 984070912 983763136 
2410.583 983508864 983450752 983569344 983717184 983707584 983928000 
2422.154 984127680 984006976 984067904 984129856 984041216 983952384 
2433.725 983909120 983621824 983218688 982971520 982811648 982478464 
2445.296 982161024 982064064 981940928 981939328 981855744 981475840 
2456.867 981356672 981698816 981928768 981903360 981922688 981950784 
2468.438 982136000 982476736 982677056 982673792 982612608 982515968 
2480.008 982349568 982383936 982487168 982603712 982874624 983004928 
2491.579 982841408 982786944 982908544 982929664 982872256 982864128 
2503.150 982717184 982787456 983115520 983177344 982812224 982680128 
2514.721 982895040 983080576 983224384 983131840 982936384 982826688 
2526.292 982769024 982742848 982767040 982832768 982763968 982595072 
2537.862 982572160 982575360 982409600 982090752 981973312 982160384 
2549.433 982180864 981837248 981542976 981354432 981152704 981137920 
2561.004 981300352 981315840 981116608 980860928 980654208 980443264 
2572.575 980256576 980248000 980221376 979927360 979706560 979755392 
2584.146 979769280 979522560 979208384 979043200 978948032 978873472 
2595.716 978667520 978528512 978415744 978388416 978506240 978628928 
2607.287 978622656 978665152 978656832 978450688 978242816 978184768 
2618.858 978252864 978325184 978430016 978370752 978285760 978336512 
2630.429 978319232 978106944 977864768 977757632 977733312 977713088 
2642.000 977626240 977484800 977392512 977311872 977145600 976978752 
2653.570 976931584 976977472 976974272 976961920 977026688 977118016 
2665.141 977320128 977481280 977420480 977187200 977066752 977128064 
2676.712 977108672 977076416 977078144 976965312 976803328 976671616 
2688.283 976496000 976198400 975961024 975940992 975981248 976011136 
2699.854 976072832 976036544 975749760 975584576 975673984 975623936 
2711.424 975433856 975289984 975013760 974759744 974639680 974571072 
2722.995 974470720 974360000 974136640 973826496 973598144 973455232 
2734.566 973427712 973493056 973497856 973368320 973174464 972939328 
2746.137 972787456 972739136 972734400 972629824 972448256 972238464 
2757.708 971977024 971803904 971722688 971549504 971328640 971122816 
2769.278 970856320 970528512 970222016 969900352 969564288 969299648 
2780.849 969004608 968805568 968748800 968514880 968212096 967917248 
2792.420 967558592 967222336 966898496 966531456 966067584 965551936 
2803.991 965066560 964559488 963957824 963430464 962926528 962375488 
2815.562 961786752 961247232 960712384 960025408 959300096 958698496 
2827.132 958097792 957337728 956515456 955653632 954775616 953876736 
2838.703 952768192 951391296 949890688 948224960 946369408 944508864 
2850.274 942818752 941466752 940414144 939544768 938759552 937768768 
2861.845 936500928 934925888 933082432 931111552 929240512 927712000 
2873.416 926750592 926353664 926277056 926449664 926705408 926959168 
2884.986 927294848 927671296 928034560 928468480 929151360 929881344 
2896.557 930480640 930967168 931160768 931110080 930800832 930099648 
2908.128 929303872 928515392 927339392 925807808 924209792 922524032 
2919.699 920705088 918872000 917448448 916337344 915332416 914502016 
2931.270 913999424 914056320 914565568 915389568 916412352 917458624 
2942.840 918575104 919618176 920479872 921238720 921829824 922223296 
2954.411 922355520 922201216 921931584 921626944 921410688 921447552 
2965.982 921931200 923152768 924999552 927353152 930291200 933513152 
2977.553 936701440 939810432 942765504 945457536 947953024 950218432 
2989.124 952257088 954075904 955629440 956879936 957817472 958511168 
3000.694 959043968 959419968 959792384 960120000 960298176 960355904 
3012.265 960225152 960011584 959799808 959464448 958895104 958151936 
3023.836 957225408 956155072 955037248 953820032 952386688 950984064 
3035.407 949843456 949148928 948974144 949072576 949117632 948874112 
3046.978 948338112 947611968 946878272 945964992 944886848 943978752 
3058.548 943057472 942029056 941102592 940355968 939699008 939126976 
3070.119 938729344 938630144 938816576 938914560 938780800 938598336 
3081.690 938471424 938191552 937715584 937128768 936318464 935319232 
3093.261 934599168 934211136 933707840 933267520 933176960 933104640 
3104.832 932888128 932700224 932567744 932344896 931920320 931388864 
3116.402 930900800 930460480 929984128 929413824 928701568 927984192 
3127.973 927330496 926612544 925815424 924869056 923733760 922741440 
3139.544 921879680 920960384 919848128 918636032 917518208 916486272 
3151.115 915543168 914455424 913313216 912375360 911515264 910572992 
3162.686 909630464 908671552 907542720 906429568 905518976 904642496 
3174.256 903707456 902760256 901694784 900624704 899615168 898527744 
3185.827 897402944 896122752 894896576 893851648 892767232 891447040 
3197.398 890077952 889028672 888030976 886810432 885585856 884523072 
3208.969 883487552 882331904 881282624 880461248 879463488 878275584 
3220.540 877118848 876058432 875220352 874588480 873783104 872769024 
3232.110 871699136 870624384 869650368 868892672 868166720 867310912 
3243.681 866417600 865584512 864710336 863851648 863068992 862224704 
3255.252 861440832 860816192 860207040 859545792 858888448 858202560 
3266.823 857515776 856870016 856224960 855670400 855192128 854701568 
3278.394 854300032 853901952 853378304 852870912 852411072 852010880 
3289.964 851678912 851322176 850992256 850644288 850387712 850306496 
3301.535 850142912 849945856 849797568 849555456 849492800 849617600 
3313.106 849592512 849523712 849532992 849568832 849615872 849651712 
3324.677 849786176 850024960 850160064 850231424 850327552 850575232 
3336.248 850935296 851256320 851388864 851524288 851917440 852462400 
3347.818 852892864 853097856 853374720 853763072 854183680 854819264 
3359.389 855593792 856165760 856625792 857094336 857424256 857920320 
3370.960 858772672 859587648 860305920 861018048 861649600 862261120 
3382.531 863065088 863971968 864803776 865540032 866352704 867336000 
3394.102 868275328 869195264 870142272 870960064 871848832 872889344 
3405.672 873964224 874973376 875921472 876819456 877700032 878640576 
3417.243 879685888 880834752 881910016 882901760 883950016 885056640 
3428.814 886194176 887176640 888171840 889395136 890611200 891606080 
3440.385 892460992 893492480 894592064 895665728 896836416 897997184 
3451.956 899109504 900199424 901318720 902454208 903523968 904703552 
3463.526 906039808 907337664 908517888 909675840 910818688 911998912 
3475.097 913241600 914326720 915239808 916301696 917641728 918960448 
3486.668 920305280 921634816 922726208 923741824 924815296 925972608 
3498.239 927066240 928016832 929143424 930475456 931590720 932588608 
3509.810 933757632 934895680 935856704 936784192 937831424 938814592 
3521.380 939698816 940733696 941887424 943000000 944222720 945495808 
3532.951 946388800 947098624 948061056 949044800 949984064 950878016 
3544.522 951715456 952717376 953747712 954623488 955604160 956651904 
3556.093 957596224 958496256 959370496 960290176 961210624 962163392 
3567.664 963396928 964589568 965374144 966041152 966862976 967904256 
3579.234 968966080 969740096 970222848 970776128 971700672 972677376 
3590.805 973287680 973920640 974722368 975397504 975877632 976394112 
3602.376 977014592 977535232 977958464 978351360 978895168 979633536 
3613.947 980187776 980591872 981217024 981889728 982195584 982193728 
3625.518 982179136 982455616 983109504 983784000 984155456 984376512 
3637.088 984528320 984637120 984832256 985115968 985351360 985417984 
3648.659 985525888 985744704 985964800 986343296 986796160 986993792 
3660.230 987083712 987352512 987721664 987957888 987974784 987827328 
3671.801 988085696 988710016 988884416 988822336 988994496 989188160 
3683.372 989261248 989273472 989342272 989596352 989817152 989899072 
3694.942 990131520 990284928 990254592 990216192 990173312 990180800 
3706.513 990218944 990340608 990484224 990380480 990293568 990280384 
3718.084 990142336 990122240 990302016 990446912 990531264 990507712 
3729.655 990425216 990287936 990138112 990074816 990106368 990138880 
3741.226 990229568 990373760 990354304 990353088 990340416 990214336 
3752.796 990181504 990330048 990577408 990565056 990377216 990437184 
3764.367 990578816 990587520 990629184 990590912 990573440 990652864 
3775.938 990638720 990667520 990753600 990715456 990625664 990599168 
3787.509 990639872 990646336 990573824 990594432 990701696 990592320 
3799.080 990509248 990530560 990458176 990537856 990544384 990518848 
3810.650 990462592 990339840 990324864 990412288 990611968 990630016 
3822.221 990246784 990138880 990223360 990261184 990431168 990505280 
3833.792 990444928 990491200 990422272 990200576 990226304 990410240 
3845.363 990455424 990336000 990293184 990405056 990498944 990413056 
3856.934 990352832 990242688 990128768 990117120 990000704 989981824 
3868.504 989988160 989906944 990059648 990185792 990114240 990236224 
3880.075 990251328 990026944 989937600 989885888 990052160 990307712 
3891.646 990245760 989998336 989922816 989959168 989893696 989750080 
3903.217 989763520 989935552 990061824 989977920 989851968 989904256 
3914.788 989992000 989893568 989768192 989786368 989861504 989906752 
3926.358 989903168 989808640 989657216 989618560 989664832 989627456 
3937.929 989591744 989707584 989820544 989787136 989671872 989583616 
3949.500 989616384 989702016 989762944 989862336 990017088 990074816 
3961.071 989951232 989813056 989745856 989669248 989631424 989622720 
3972.642 989592576 989605056 989636352 989680832 989788544 989785792 
3984.212 989586816 989391296 989258432 989151616 989169088 989228928 
3995.783 989062272 988897984 989005120 989017024 
##END=
