##TITLE= 
##JCAMP-DX= 4.24
##DATA TYPE= INFRARED SPECTRUM
##ORIGIN= Exported PE Spectrum Data File
##OWNER= ANALYST
##DATE= 11/05/23
##TIME= 14:14:15.00
##SPECTROMETER/DATA SYSTEM= PERKIN-ELMER SPECTRUM 100 IR
##INSTRUMENT PARAMETERS=
  APODIZATION=STRONG
  DETECTOR=MIR TGS
##RESOLUTION= 4.000000
##DELTAX= -1.000000
##XUNITS= 1/CM
##YUNITS= %T
##XFACTOR= 1.00
##YFACTOR= 0.00000023841857910156
##FIRSTX= 4000.0
##LASTX= 650.0
##NPOINTS= 3351
##FIRSTY= 94.8
##MAXY= 99.9
##MINY= 86.6
##XYDATA= (X++(Y..Y))
  4000.000000  415789500  415792900  415794300  415801600  415817500  
  3995.000000  415832000  415826800  415792400  415739200  415692200  
  3990.000000  415673800  415688400  415724300  415764300  415795900  
  3985.000000  415813300  415815500  415805000  415786200  415764600  
  3980.000000  415745000  415731200  415726400  415731900  415744900  
  3975.000000  415758100  415763100  415755300  415737700  415720700  
  3970.000000  415715100  415724800  415742700  415756600  415758600  
  3965.000000  415750000  415739000  415733700  415736500  415743900  
  3960.000000  415751500  415758800  415769000  415784700  415804900  
  3955.000000  415825200  415841200  415850600  415852400  415846700  
  3950.000000  415835400  415824200  415821800  415833800  415858100  
  3945.000000  415887700  415913600  415927100  415920500  415889600  
  3940.000000  415839100  415785300  415748600  415740100  415752600  
  3935.000000  415769400  415778600  415780700  415784800  415798000  
  3930.000000  415819300  415839600  415847400  415838200  415820100  
  3925.000000  415808400  415809900  415816700  415815300  415797400  
  3920.000000  415763900  415727200  415707500  415718700  415754000  
  3915.000000  415790700  415811500  415815400  415814000  415820400  
  3910.000000  415840500  415869700  415894100  415899300  415881900  
  3905.000000  415854300  415833300  415822100  415810100  415791300  
  3900.000000  415772200  415762600  415765700  415778200  415796400  
  3895.000000  415815500  415831000  415841500  415853100  415870500  
  3890.000000  415885700  415885700  415871700  415861500  415867800  
  3885.000000  415875600  415863100  415834600  415820300  415842400  
  3880.000000  415886800  415920200  415925700  415910400  415891700  
  3875.000000  415880000  415870000  415849000  415817300  415793700  
  3870.000000  415793300  415805600  415811600  415812500  415823400  
  3865.000000  415839200  415831400  415790500  415748200  415740600  
  3860.000000  415773400  415824000  415862600  415868100  415838300  
  3855.000000  415802300  415806600  415849700  415882900  415881500  
  3850.000000  415859600  415838300  415828200  415831500  415848800  
  3845.000000  415877600  415907600  415922900  415915000  415894100  
  3840.000000  415882300  415889700  415899300  415887900  415853100  
  3835.000000  415815300  415801200  415824100  415870800  415907900  
  3830.000000  415908700  415874500  415832200  415813700  415830600  
  3825.000000  415869900  415912100  415943600  415952300  415927700  
  3820.000000  415877300  415824000  415791000  415792700  415820000  
  3815.000000  415844200  415850100  415848000  415852600  415864800  
  3810.000000  415877100  415889700  415909500  415927800  415920000  
  3805.000000  415878800  415833200  415831200  415890100  415961300  
  3800.000000  415986000  415959200  415916400  415890000  415884200  
  3795.000000  415884100  415879800  415874500  415873400  415876100  
  3790.000000  415881600  415892000  415906900  415919700  415921700  
  3785.000000  415909800  415886800  415858300  415835600  415836200  
  3780.000000  415869900  415920200  415954900  415957500  415938200  
  3775.000000  415919600  415915100  415922700  415935400  415946400  
  3770.000000  415947700  415934700  415915100  415905900  415917000  
  3765.000000  415938700  415950900  415944500  415930300  415923500  
  3760.000000  415922300  415913400  415895500  415879700  415869600  
  3755.000000  415859600  415849400  415849400  415867600  415896200  
  3750.000000  415923000  415942300  415946900  415935900  415926900  
  3745.000000  415944000  415972300  415973900  415947400  415924800  
  3740.000000  415925400  415936600  415933400  415910900  415884000  
  3735.000000  415863700  415852400  415853800  415868900  415887400  
  3730.000000  415897300  415902200  415919100  415955000  415986400  
  3725.000000  415979300  415928900  415867400  415837400  415858100  
  3720.000000  415915300  415978400  416024300  416047300  416050000  
  3715.000000  416037000  416013700  415988300  415970100  415961600  
  3710.000000  415954000  415934600  415898400  415848300  415787600  
  3705.000000  415716400  415638000  415566700  415522800  415516100  
  3700.000000  415534500  415557600  415576100  415594900  415620600  
  3695.000000  415653300  415688800  415719900  415736800  415733800  
  3690.000000  415719800  415712200  415713800  415712200  415702400  
  3685.000000  415694900  415699900  415711800  415716900  415713300  
  3680.000000  415710200  415707300  415694100  415676800  415684900  
  3675.000000  415726600  415771300  415788300  415776500  415752600  
  3670.000000  415725400  415693200  415659800  415631700  415610000  
  3665.000000  415590100  415569300  415551700  415541900  415535200  
  3660.000000  415517500  415480500  415435600  415410700  415423300  
  3655.000000  415461900  415503700  415536700  415558100  415561000  
  3650.000000  415536300  415497300  415472000  415461900  415446500  
  3645.000000  415415100  415378400  415355900  415356200  415368500  
  3640.000000  415375100  415369000  415358200  415357000  415376600  
  3635.000000  415416400  415459200  415478700  415461500  415422400  
  3630.000000  415397400  415400700  415403600  415379900  415336500  
  3625.000000  415299700  415291800  415316800  415358700  415389200  
  3620.000000  415381000  415331400  415268600  415226300  415222500  
  3615.000000  415262400  415336100  415415400  415470000  415490500  
  3610.000000  415490200  415484500  415475200  415459900  415446100  
  3605.000000  415445100  415454800  415457400  415436700  415399900  
  3600.000000  415374200  415380700  415415000  415453600  415471000  
  3595.000000  415456200  415417200  415371500  415333000  415305500  
  3590.000000  415287300  415276000  415271200  415274200  415285900  
  3585.000000  415302000  415315000  415319600  415313800  415297800  
  3580.000000  415272300  415240900  415213500  415203200  415215500  
  3575.000000  415240300  415260300  415267500  415267400  415264400  
  3570.000000  415250100  415208800  415139700  415068700  415027000  
  3565.000000  415018900  415025600  415030000  415027900  415024600  
  3560.000000  415027200  415034800  415036600  415020600  414987100  
  3555.000000  414953900  414942700  414958700  414983400  414993100  
  3550.000000  414981200  414960500  414948000  414947400  414946000  
  3545.000000  414931300  414908200  414893300  414895900  414907000  
  3540.000000  414908800  414896800  414889100  414910200  414961900  
  3535.000000  415015500  415036900  415016000  414972300  414936700  
  3530.000000  414928100  414942500  414959700  414959500  414935500  
  3525.000000  414898100  414866400  414854100  414861000  414877500  
  3520.000000  414894000  414904000  414901500  414881600  414848100  
  3515.000000  414815200  414796900  414796300  414806900  414822100  
  3510.000000  414838500  414851900  414856400  414850900  414844800  
  3505.000000  414852600  414881200  414919500  414943400  414932000  
  3500.000000  414882600  414812300  414747200  414703800  414679200  
  3495.000000  414662000  414649400  414651100  414675000  414714200  
  3490.000000  414751100  414771900  414773800  414761200  414739100  
  3485.000000  414714600  414697200  414691900  414691900  414686600  
  3480.000000  414677200  414676700  414690700  414706300  414704200  
  3475.000000  414681600  414654700  414640500  414641600  414650300  
  3470.000000  414660300  414667600  414666100  414650500  414626000  
  3465.000000  414608400  414610000  414625000  414633600  414620600  
  3460.000000  414588200  414547300  414501000  414444800  414382700  
  3455.000000  414334400  414317400  414325500  414332700  414320800  
  3450.000000  414297300  414283200  414287300  414298100  414301000  
  3445.000000  414292600  414276500  414251500  414213900  414168700  
  3440.000000  414130200  414107200  414092200  414070900  414041200  
  3435.000000  414019100  414022700  414051600  414087100  414109800  
  3430.000000  414115200  414111600  414107300  414103600  414098800  
  3425.000000  414094200  414093100  414095100  414092300  414075000  
  3420.000000  414041900  414007900  413999900  414040000  414127100  
  3415.000000  414230600  414305100  414319400  414276800  414212600  
  3410.000000  414169200  414167700  414196600  414226700  414239200  
  3405.000000  414240700  414250700  414275500  414299700  414305100  
  3400.000000  414294000  414286300  414295200  414311800  414317700  
  3395.000000  414309500  414303700  414318300  414352600  414388500  
  3390.000000  414407700  414406600  414392300  414370400  414338700  
  3385.000000  414296100  414254000  414232700  414242100  414268500  
  3380.000000  414286000  414280300  414258600  414235900  414218500  
  3375.000000  414204700  414195600  414197700  414214000  414236700  
  3370.000000  414253900  414259700  414257000  414251600  414246200  
  3365.000000  414237600  414219000  414187400  414153000  414140300  
  3360.000000  414170700  414239100  414308600  414334300  414297700  
  3355.000000  414220200  414147600  414119300  414144400  414199100  
  3350.000000  414244400  414252600  414224100  414180700  414146700  
  3345.000000  414135900  414150200  414182200  414216700  414235100  
  3340.000000  414225900  414190800  414141400  414091800  414055700  
  3335.000000  414042800  414052700  414069700  414072600  414053200  
  3330.000000  414026300  414017600  414040200  414084300  414130300  
  3325.000000  414168300  414202200  414235900  414261100  414264100  
  3320.000000  414240800  414201900  414162400  414130500  414105800  
  3315.000000  414084800  414066100  414053400  414054100  414070800  
  3310.000000  414094500  414109200  414107400  414096100  414085300  
  3305.000000  414075600  414060800  414041400  414027700  414028900  
  3300.000000  414043000  414060700  414074900  414084400  414089000  
  3295.000000  414086100  414073300  414055300  414042900  414045300  
  3290.000000  414059800  414074800  414080000  414075200  414067500  
  3285.000000  414063900  414068000  414079500  414094500  414107200  
  3280.000000  414115200  414123600  414139500  414162200  414180500  
  3275.000000  414183000  414169900  414154700  414150600  414157800  
  3270.000000  414164400  414162700  414160000  414167600  414183000  
  3265.000000  414189800  414178700  414160500  414152100  414156100  
  3260.000000  414162000  414166800  414182600  414221300  414278000  
  3255.000000  414333100  414368400  414377700  414367400  414349700  
  3250.000000  414337600  414339000  414354700  414378900  414404200  
  3245.000000  414425600  414441900  414453400  414459900  414462100  
  3240.000000  414463900  414469200  414476800  414481300  414481800  
  3235.000000  414485600  414499300  414518000  414527900  414519100  
  3230.000000  414495400  414471600  414461500  414467000  414476300  
  3225.000000  414475800  414465800  414461200  414473600  414496700  
  3220.000000  414514100  414519100  414518600  414522100  414534300  
  3215.000000  414558100  414593900  414632500  414656500  414653800  
  3210.000000  414628500  414593100  414557100  414526000  414508500  
  3205.000000  414515600  414550900  414605200  414662300  414710900  
  3200.000000  414747700  414771300  414775200  414752500  414709600  
  3195.000000  414670200  414658000  414675300  414703400  414722800  
  3190.000000  414729100  414728400  414727100  414729600  414741900  
  3185.000000  414768400  414804300  414836100  414851400  414846600  
  3180.000000  414827300  414802200  414777700  414754800  414733400  
  3175.000000  414717700  414714400  414723100  414733100  414735700  
  3170.000000  414739500  414766800  414830000  414911500  414971300  
  3165.000000  414977400  414932200  414870000  414830200  414831300  
  3160.000000  414867300  414919700  414969200  414997900  414991700  
  3155.000000  414948100  414884200  414829500  414809100  414827900  
  3150.000000  414869500  414910000  414932900  414936800  414929400  
  3145.000000  414917800  414904200  414887900  414871800  414864300  
  3140.000000  414876700  414914500  414968800  415016800  415037300  
  3135.000000  415027100  415002200  414982200  414974900  414976700  
  3130.000000  414982000  414987900  414992100  414990800  414983000  
  3125.000000  414972700  414965200  414960400  414951400  414934100  
  3120.000000  414916100  414913100  414934400  414971700  415003800  
  3115.000000  415012400  414991200  414943300  414876600  414803800  
  3110.000000  414740600  414700000  414685800  414693900  414717000  
  3105.000000  414746600  414772900  414788100  414794500  414804100  
  3100.000000  414827000  414858800  414882600  414883000  414860400  
  3095.000000  414829800  414807900  414800000  414799400  414797300  
  3090.000000  414792000  414787900  414786800  414781700  414762800  
  3085.000000  414729900  414696500  414676900  414673000  414674700  
  3080.000000  414673700  414672600  414678300  414691200  414702400  
  3075.000000  414701400  414683100  414651600  414618400  414595900  
  3070.000000  414589300  414593400  414597500  414594700  414586600  
  3065.000000  414583200  414596200  414628700  414668400  414693000  
  3060.000000  414686600  414652300  414607800  414570400  414548900  
  3055.000000  414543000  414546800  414552000  414554500  414561900  
  3050.000000  414590600  414652200  414741900  414838700  414916500  
  3045.000000  414959500  414972600  414977200  414990800  415010100  
  3040.000000  415019100  415012500  415004300  415010200  415028500  
  3035.000000  415044400  415049100  415046300  415040300  415026600  
  3030.000000  414995800  414946500  414891400  414849700  414831600  
  3025.000000  414827800  414817000  414785300  414738700  414693700  
  3020.000000  414658800  414627600  414589900  414543200  414492100  
  3015.000000  414439200  414381800  414315200  414240000  414164800  
  3010.000000  414101500  414055900  414022600  413990700  413953100  
  3005.000000  413909700  413862000  413810800  413762100  413728600  
  3000.000000  413720500  413732600  413745400  413740900  413714000  
  2995.000000  413669100  413610200  413538700  413459000  413379700  
  2990.000000  413305700  413234100  413157500  413070800  412971800  
  2985.000000  412858800  412732200  412598200  412465300  412335800  
  2980.000000  412204600  412068000  411931100  411801800  411679300  
  2975.000000  411553300  411415200  411267400  411119200  410977600  
  2970.000000  410845700  410726800  410624200  410536100  410454000  
  2965.000000  410369800  410281700  410192400  410106300  410033600  
  2960.000000  409991600  409994400  410037500  410099300  410159900  
  2955.000000  410217300  410282100  410361100  410449100  410534700  
  2950.000000  410608700  410667100  410709300  410733600  410731100  
  2945.000000  410687800  410597500  410471800  410333400  410195700  
  2940.000000  410052700  409889100  409696600  409478700  409244600  
  2935.000000  409003400  408761600  408522200  408285500  408052000  
  2930.000000  407824300  407605500  407395800  407192900  406997800  
  2925.000000  406818900  406670700  406566300  406512400  406512300  
  2920.000000  406575500  406716800  406941400  407231800  407556100  
  2915.000000  407888900  408217100  408527800  408802500  409032600  
  2910.000000  409232200  409425400  409621800  409810400  409974800  
  2905.000000  410107900  410214300  410311000  410423600  410571600  
  2900.000000  410749900  410929600  411085800  411219400  411346800  
  2895.000000  411474100  411588600  411676900  411741900  411800300  
  2890.000000  411868600  411954800  412057100  412165600  412265000  
  2885.000000  412343200  412397600  412432900  412452700  412457400  
  2880.000000  412447300  412427400  412405100  412386800  412373900  
  2875.000000  412362900  412347800  412326200  412303700  412288200  
  2870.000000  412280400  412269700  412242000  412189800  412113900  
  2865.000000  412016500  411897100  411750900  411571000  411352400  
  2860.000000  411097600  410819900  410536600  410260200  409999500  
  2855.000000  409772700  409613000  409555700  409620800  409809300  
  2850.000000  410112700  410516500  410992500  411495800  411977500  
  2845.000000  412403800  412760600  413047200  413272700  413458700  
  2840.000000  413634400  413819700  414010600  414184800  414321600  
  2835.000000  414416000  414478000  414525200  414572900  414626900  
  2830.000000  414681600  414727800  414764600  414800100  414843900  
  2825.000000  414899900  414964800  415028900  415076000  415093700  
  2820.000000  415087200  415078900  415088800  415115600  415142800  
  2815.000000  415158800  415166200  415170500  415172100  415169800  
  2810.000000  415167800  415171600  415182300  415199400  415225900  
  2805.000000  415263400  415304300  415333300  415342800  415340700  
  2800.000000  415340900  415348300  415357700  415364600  415374200  
  2795.000000  415394300  415424100  415452100  415467000  415470000  
  2790.000000  415472300  415482900  415500600  415521200  415546500  
  2785.000000  415580200  415614300  415629800  415617600  415593800  
  2780.000000  415585000  415600400  415623900  415636400  415636600  
  2775.000000  415636200  415641800  415648700  415649800  415645100  
  2770.000000  415642500  415652000  415675800  415704200  415723200  
  2765.000000  415730000  415736400  415752000  415768500  415769600  
  2760.000000  415754600  415742600  415750900  415777200  415804100  
  2755.000000  415816000  415808500  415787700  415766200  415757100  
  2750.000000  415766700  415791800  415823000  415849400  415861500  
  2745.000000  415855000  415835700  415816100  415804300  415798500  
  2740.000000  415795400  415798300  415814200  415843100  415874700  
  2735.000000  415894700  415893500  415872200  415844700  415831400  
  2730.000000  415845000  415879100  415912900  415928400  415922500  
  2725.000000  415903600  415881600  415863400  415856200  415868400  
  2720.000000  415901600  415944200  415978300  415995500  416001300  
  2715.000000  416001800  415994900  415978800  415962500  415957300  
  2710.000000  415961600  415966000  415972700  415996000  416038600  
  2705.000000  416079300  416093100  416075600  416041700  416007500  
  2700.000000  415981700  415971000  415979200  416000800  416022800  
  2695.000000  416035200  416038800  416041600  416051900  416071300  
  2690.000000  416091000  416096900  416085400  416070800  416070800  
  2685.000000  416087600  416106500  416113500  416107100  416094900  
  2680.000000  416084600  416081400  416086100  416095200  416104500  
  2675.000000  416114900  416128900  416144200  416155100  416161700  
  2670.000000  416171800  416189700  416207700  416212300  416195500  
  2665.000000  416161700  416124000  416094800  416074900  416050900  
  2660.000000  416009700  415956600  415913300  415896400  415901500  
  2655.000000  415912600  415921400  415930400  415941800  415951900  
  2650.000000  415956000  415954100  415948300  415939200  415925800  
  2645.000000  415910200  415897900  415895800  415908500  415935400  
  2640.000000  415968700  415995200  416001400  415982100  415946600  
  2635.000000  415913700  415896600  415890300  415880200  415862000  
  2630.000000  415848000  415852100  415872200  415893800  415906800  
  2625.000000  415914200  415923500  415936300  415947900  415954100  
  2620.000000  415955600  415957500  415964500  415976700  415990700  
  2615.000000  416005400  416024200  416049800  416076400  416092600  
  2610.000000  416094900  416093400  416100000  416111100  416109100  
  2605.000000  416084900  416052800  416037800  416048000  416066900  
  2600.000000  416074400  416070500  416071500  416086400  416105100  
  2595.000000  416111900  416103900  416090000  416076600  416061200  
  2590.000000  416043600  416036600  416058000  416109800  416165800  
  2585.000000  416188200  416161300  416110300  416081800  416101200  
  2580.000000  416149200  416181400  416172500  416137500  416112900  
  2575.000000  416121400  416154200  416184300  416191100  416174700  
  2570.000000  416152700  416144000  416153200  416167100  416169100  
  2565.000000  416155800  416141100  416142600  416163900  416188700  
  2560.000000  416194700  416177000  416158500  416171300  416222300  
  2555.000000  416281600  416312100  416306400  416287900  416279800  
  2550.000000  416285700  416297900  416308800  416308900  416288500  
  2545.000000  416252200  416222600  416218400  416236500  416262200  
  2540.000000  416285600  416298500  416287400  416247900  416201800  
  2535.000000  416180800  416195400  416232500  416278400  416327700  
  2530.000000  416371300  416396300  416403100  416405100  416407100  
  2525.000000  416398000  416371800  416339600  416315500  416304100  
  2520.000000  416308700  416336400  416381400  416417200  416418200  
  2515.000000  416386800  416351200  416341400  416369800  416423000  
  2510.000000  416466400  416470900  416444100  416422600  416426600  
  2505.000000  416438300  416437000  416435800  416459400  416496300  
  2500.000000  416503300  416458800  416391500  416349100  416355900  
  2495.000000  416405600  416479700  416559000  416624900  416662000  
  2490.000000  416665400  416647800  416634700  416646700  416678700  
  2485.000000  416705500  416710000  416699200  416686700  416670300  
  2480.000000  416644500  416624100  416634000  416674800  416717900  
  2475.000000  416739700  416743200  416740000  416726800  416694800  
  2470.000000  416654000  416632000  416648100  416693200  416736400  
  2465.000000  416749400  416729000  416696400  416676700  416679000  
  2460.000000  416696400  416718000  416735800  416743800  416740900  
  2455.000000  416733700  416728400  416723800  416719100  416725200  
  2450.000000  416754200  416797300  416827300  416824600  416790200  
  2445.000000  416735100  416675400  416638000  416647700  416694900  
  2440.000000  416733800  416731600  416706200  416698200  416716200  
  2435.000000  416731700  416724300  416706400  416700400  416710700  
  2430.000000  416728000  416746400  416763400  416772600  416769300  
  2425.000000  416760100  416758500  416767700  416775500  416766000  
  2420.000000  416737100  416705200  416693600  416711500  416743000  
  2415.000000  416757800  416737300  416690900  416649400  416641100  
  2410.000000  416672800  416726600  416774600  416800000  416807500  
  2405.000000  416810000  416808200  416790600  416754600  416721000  
  2400.000000  416716100  416745000  416787800  416824100  416850700  
  2395.000000  416874700  416896600  416906700  416895900  416867100  
  2390.000000  416835300  416817100  416818400  416832300  416849300  
  2385.000000  416869300  416897300  416929300  416950700  416953200  
  2380.000000  416950000  416960500  416984700  417000200  416991800  
  2375.000000  416974700  416978400  417008700  417031300  417001600  
  2370.000000  416915900  416833400  416831200  416923300  417040800  
  2365.000000  417107300  417118100  417114700  417106600  417061000  
  2360.000000  416963800  416856500  416791600  416799000  416891700  
  2355.000000  417051300  417210100  417283000  417242600  417137200  
  2350.000000  417032900  416963700  416925700  416897700  416851000  
  2345.000000  416773200  416686400  416636400  416668300  416777500  
  2340.000000  416901100  416968800  416963000  416922800  416905200  
  2335.000000  416939100  417011700  417076500  417084600  417017600  
  2330.000000  416905300  416802700  416734100  416682500  416622300  
  2325.000000  416563300  416542700  416573300  416620400  416637900  
  2320.000000  416625300  416620200  416652100  416716300  416786900  
  2315.000000  416839100  416863700  416875800  416902700  416950700  
  2310.000000  416986600  416971000  416905900  416834200  416792500  
  2305.000000  416781600  416784700  416790500  416793200  416786700  
  2300.000000  416775200  416773700  416783800  416779700  416734300  
  2295.000000  416658100  416593200  416570500  416581300  416590600  
  2290.000000  416567400  416503700  416415200  416331200  416276900  
  2285.000000  416259700  416268900  416287200  416303200  416318300  
  2280.000000  416342600  416381200  416424100  416457800  416485500  
  2275.000000  416523700  416573500  416611500  416620600  416616800  
  2270.000000  416632700  416681700  416751500  416821300  416870800  
  2265.000000  416883000  416859900  416836900  416860500  416940800  
  2260.000000  417034100  417079200  417055900  417007100  417000500  
  2255.000000  417058800  417129300  417134500  417053600  416942300  
  2250.000000  416870100  416858500  416884200  416917700  416940400  
  2245.000000  416942200  416926800  416915200  416925100  416953700  
  2240.000000  416990000  417031100  417069400  417084900  417074300  
  2235.000000  417072600  417111700  417165100  417171400  417114100  
  2230.000000  417043500  417010900  417013000  417017400  417013900  
  2225.000000  417012600  417010700  416991900  416958000  416936200  
  2220.000000  416948100  416982400  417006900  417002000  416978300  
  2215.000000  416965700  416991500  417059900  417140300  417175100  
  2210.000000  417123200  417012600  416934100  416953900  417039600  
  2205.000000  417098300  417085200  417037100  416994400  416942800  
  2200.000000  416860000  416777900  416749800  416774200  416799800  
  2195.000000  416799200  416797600  416826300  416886700  416965800  
  2190.000000  417050000  417109800  417106400  417039700  416972800  
  2185.000000  416984300  417097300  417265400  417418000  417508400  
  2180.000000  417527700  417494500  417441700  417401800  417381200  
  2175.000000  417342500  417233000  417047400  416848200  416701700  
  2170.000000  416605100  416510900  416416300  416378900  416422000  
  2165.000000  416476100  416469300  416451800  416572200  416933100  
  2160.000000  417501200  418144400  418702000  419030200  419059300  
  2155.000000  418847400  418551500  418318900  418191800  418108200  
  2150.000000  417984700  417799100  417615900  417538000  417618300  
  2145.000000  417803500  417969000  418019800  417961200  417878600  
  2140.000000  417855000  417908200  418002400  418105200  418214100  
  2135.000000  418325500  418401000  418393800  418301400  418166200  
  2130.000000  418028500  417901500  417789800  417700900  417626200  
  2125.000000  417535100  417410800  417281300  417194900  417171700  
  2120.000000  417189100  417205000  417184600  417114300  417010800  
  2115.000000  416914200  416858200  416849400  416879700  416947100  
  2110.000000  417047700  417159300  417251600  417307300  417318100  
  2105.000000  417272500  417171400  417051700  416968700  416955300  
  2100.000000  417010300  417119500  417259400  417380300  417423400  
  2095.000000  417374100  417282000  417214300  417195500  417196100  
  2090.000000  417169900  417100000  417020400  416992700  417049900  
  2085.000000  417153800  417216700  417172100  417025200  416847400  
  2080.000000  416731100  416736900  416855000  417006500  417107100  
  2075.000000  417139800  417154300  417190900  417230900  417235000  
  2070.000000  417205300  417182000  417192100  417229600  417287100  
  2065.000000  417375400  417500400  417638200  417749600  417806200  
  2060.000000  417794600  417709600  417569500  417431900  417356700  
  2055.000000  417338400  417306900  417222700  417145500  417168100  
  2050.000000  417291000  417407100  417439400  417441500  417509800  
  2045.000000  417640500  417732100  417712700  417611600  417507300  
  2040.000000  417448100  417438600  417476900  417571900  417720100  
  2035.000000  417879900  417983900  417993400  417938700  417881700  
  2030.000000  417844400  417806000  417767100  417768900  417825900  
  2025.000000  417879100  417860200  417781700  417721300  417725800  
  2020.000000  417766200  417789100  417785500  417795700  417847100  
  2015.000000  417897600  417855000  417676600  417447600  417329500  
  2010.000000  417410700  417628200  417845800  417982900  418042300  
  2005.000000  418050900  418026900  417987300  417940500  417875900  
  2000.000000  417792600  417730700  417743000  417821700  417882700  
  1995.000000  417839900  417686100  417500300  417379800  417357300  
  1990.000000  417390500  417423000  417429200  417402700  417326000  
  1985.000000  417182000  416991300  416811900  416696700  416670600  
  1980.000000  416743300  416907500  417112300  417281600  417387900  
  1975.000000  417465100  417525300  417525500  417455000  417396900  
  1970.000000  417441700  417564200  417641900  417597900  417479800  
  1965.000000  417382200  417346600  417362100  417412800  417493700  
  1960.000000  417588200  417650000  417621600  417487400  417312800  
  1955.000000  417204300  417213400  417291500  417357900  417390500  
  1950.000000  417425300  417488000  417559800  417608300  417625700  
  1945.000000  417631800  417653300  417701200  417757700  417787200  
  1940.000000  417766500  417700800  417616600  417550900  417540300  
  1935.000000  417597400  417694400  417783200  417845400  417903900  
  1930.000000  417976800  418046400  418086300  418094900  418085200  
  1925.000000  418056300  418003400  417939300  417882000  417828900  
  1920.000000  417767900  417708000  417677300  417687800  417720200  
  1915.000000  417751600  417778500  417811800  417864900  417939000  
  1910.000000  418007300  418028900  417991300  417927900  417886400  
  1905.000000  417890000  417933800  417993900  418037500  418042500  
  1900.000000  418019600  418002400  418009700  418025600  418026100  
  1895.000000  418008800  417987700  417977600  417994300  418048900  
  1890.000000  418119100  418151900  418124200  418068700  418024200  
  1885.000000  417995300  417970200  417953300  417956200  417968800  
  1880.000000  417969300  417957200  417954900  417973700  418004100  
  1875.000000  418033400  418049600  418035100  417982100  417910200  
  1870.000000  417851100  417812800  417783100  417767700  417785500  
  1865.000000  417826800  417849300  417819800  417752100  417692700  
  1860.000000  417672500  417681000  417686200  417668000  417634000  
  1855.000000  417604300  417583100  417556700  417518600  417489600  
  1850.000000  417500700  417546500  417580200  417566200  417518600  
  1845.000000  417474500  417442900  417403400  417352600  417316200  
  1840.000000  417314500  417334300  417339900  417313900  417273000  
  1835.000000  417235100  417194200  417146900  417119000  417146100  
  1830.000000  417210600  417237500  417195200  417131600  417098700  
  1825.000000  417083800  417040900  416975500  416942100  416974000  
  1820.000000  417049800  417123500  417162100  417152200  417104600  
  1815.000000  417049600  417011900  416986300  416949300  416900900  
  1810.000000  416868700  416869000  416891400  416920200  416951100  
  1805.000000  416982900  417009900  417023200  417015800  416984400  
  1800.000000  416935000  416887000  416852000  416821600  416786200  
  1795.000000  416754000  416748100  416772800  416799800  416805300  
  1790.000000  416785700  416741000  416676100  416608000  416555700  
  1785.000000  416518900  416484900  416451800  416435400  416439500  
  1780.000000  416440600  416430600  416425300  416426300  416406100  
  1775.000000  416346400  416276500  416238100  416225400  416206400  
  1770.000000  416167300  416099400  416000100  415894800  415815500  
  1765.000000  415750800  415654300  415497800  415312000  415141300  
  1760.000000  414972500  414768400  414517700  414224500  413894400  
  1755.000000  413546800  413199200  412823000  412332600  411668300  
  1750.000000  410873200  410008100  409093200  408154100  407199200  
  1745.000000  406160000  404973600  403705100  402443700  401107900  
  1740.000000  399593400  398123800  397082600  396442400  395725400  
  1735.000000  394196400  391824400  389753400  388493900  387501600  
  1730.000000  386362300  385099100  383930700  382933700  382011100  
  1725.000000  381018900  379899100  378802800  378008500  377621000  
  1720.000000  377365800  376636600  375052500  373263200  372147600  
  1715.000000  371674200  371550600  371768700  372328200  373095900  
  1710.000000  373966700  374997600  376245400  377605500  378911500  
  1705.000000  380170400  381550500  383116300  384804100  386392800  
  1700.000000  387632400  388671800  389786300  390983700  392089400  
  1695.000000  392996700  393809500  394637500  395482000  396281000  
  1690.000000  396966500  397539200  398066800  398596100  399118200  
  1685.000000  399504000  399675800  399851800  400180700  400590900  
  1680.000000  401011900  401425400  401854600  402302100  402697200  
  1675.000000  402975000  403214000  403522600  403890700  404233600  
  1670.000000  404488100  404708100  404967700  405247200  405516400  
  1665.000000  405783200  406056200  406310900  406530200  406742100  
  1660.000000  406955500  407156800  407342300  407551500  407801600  
  1655.000000  408086300  408268200  408253500  408291200  408471700  
  1650.000000  408695100  408943500  409162700  409246100  409219400  
  1645.000000  409241400  409361900  409527300  409687800  409829800  
  1640.000000  409967400  410108300  410243100  410350100  410403700  
  1635.000000  410426600  410469000  410536200  410630500  410757000  
  1630.000000  410901200  411039400  411150500  411223500  411263000  
  1625.000000  411292100  411334900  411390700  411437600  411463000  
  1620.000000  411465600  411443400  411378400  411259300  411137300  
  1615.000000  411070400  411055500  411079800  411152500  411279300  
  1610.000000  411445000  411618000  411770800  411900600  412035100  
  1605.000000  412205600  412405700  412595100  412743000  412857100  
  1600.000000  412963600  413072800  413175700  413257300  413307400  
  1595.000000  413324400  413319900  413311900  413307700  413301600  
  1590.000000  413287800  413263200  413212100  413106000  412929200  
  1585.000000  412691700  412399600  412041300  411638300  411270400  
  1580.000000  411021300  410922000  410963300  411118700  411356100  
  1575.000000  411639100  411925100  412194700  412463500  412758300  
  1570.000000  413069000  413338200  413518600  413616300  413668900  
  1565.000000  413712800  413752500  413783100  413816300  413899000  
  1560.000000  414056000  414145600  414120800  414100200  414094100  
  1555.000000  414097400  414133300  414197500  414265500  414308500  
  1550.000000  414327000  414342200  414375100  414419600  414458500  
  1545.000000  414475800  414468300  414453500  414461300  414511900  
  1540.000000  414589200  414655600  414686400  414682000  414668700  
  1535.000000  414663100  414645100  414600500  414559600  414551800  
  1530.000000  414575600  414612200  414629900  414607200  414567400  
  1525.000000  414561400  414611400  414706400  414810600  414886600  
  1520.000000  414930100  414946800  414942300  414914200  414852300  
  1515.000000  414755000  414623900  414465400  414263600  413997500  
  1510.000000  413626900  413082400  412159200  410809800  409750600  
  1505.000000  409551400  409966300  410685300  411541000  412401600  
  1500.000000  413174700  413819900  414346600  414748600  415026600  
  1495.000000  415204800  415304300  415349700  415377700  415391300  
  1490.000000  415323300  415129100  414866300  414594400  414306400  
  1485.000000  413998700  413697100  413412000  413123200  412823000  
  1480.000000  412540100  412281500  412006000  411686900  411373700  
  1475.000000  411123200  410893600  410603900  410300500  410093800  
  1470.000000  409973100  409871300  409762300  409642800  409497300  
  1465.000000  409313400  409126600  408989700  408911500  408883600  
  1460.000000  408894300  408900500  408785500  408516500  408313800  
  1455.000000  408314500  408442200  408615800  408783000  408917300  
  1450.000000  409026600  409136900  409263400  409390900  409503400  
  1445.000000  409610700  409728800  409861600  409995900  410119500  
  1440.000000  410240100  410386400  410586800  410832400  411077600  
  1435.000000  411299200  411513200  411735700  411959300  412165200  
  1430.000000  412349000  412513700  412654400  412761000  412820100  
  1425.000000  412803500  412684900  412496500  412282200  411998600  
  1420.000000  411497200  410681600  409662100  408550900  407311200  
  1415.000000  405899700  404334300  402672600  401034000  399619600  
  1410.000000  398623800  398146400  398219900  398820200  399825700  
  1405.000000  401042200  402285500  403448200  404508600  405493800  
  1400.000000  406414300  407220500  407865100  408377500  408822600  
  1395.000000  409222000  409554200  409804900  409982200  410103200  
  1390.000000  410186200  410244200  410276500  410274400  410241900  
  1385.000000  410193800  410134600  410056200  409953200  409834300  
  1380.000000  409718200  409620300  409544900  409480800  409401100  
  1375.000000  409277700  409125100  409009900  408986000  409052500  
  1370.000000  409182900  409361600  409589000  409864800  410181000  
  1365.000000  410531600  410902700  411243200  411481000  411600400  
  1360.000000  411655400  411697700  411727100  411704700  411596000  
  1355.000000  411395200  411118800  410784900  410399800  409951700  
  1350.000000  409415600  408769400  407996500  407077700  405998000  
  1345.000000  404784400  403519500  402285400  401101300  399956500  
  1340.000000  398920600  398176100  397888700  398104500  398798800  
  1335.000000  399926500  401395300  403050100  404710800  406224500  
  1330.000000  407498800  408503700  409245300  409744100  410034200  
  1325.000000  410164600  410183500  410124900  410009100  409852300  
  1320.000000  409671100  409477500  409267800  409023400  408730800  
  1315.000000  408396700  408039300  407666900  407275500  406867900  
  1310.000000  406462400  406078500  405720400  405375600  405024900  
  1305.000000  404652800  404248100  403797000  403281100  402689200  
  1300.000000  402030200  401326600  400594700  399845600  399105200  
  1295.000000  398407300  397756000  397116200  396459400  395800800  
  1290.000000  395173200  394584400  394022000  393488100  393005100  
  1285.000000  392585300  392209500  391835800  391430400  390996700  
  1280.000000  390568600  390165600  389759300  389301100  388771000  
  1275.000000  388178000  387520700  386782000  385964000  385094800  
  1270.000000  384195100  383268000  382328000  381405000  380511300  
  1265.000000  379642000  378818400  378091000  377485400  376983300  
  1260.000000  376566300  376235500  375977400  375749800  375515900  
  1255.000000  375259300  374965500  374625000  374259200  373900800  
  1250.000000  373543700  373150000  372713600  372277200  371884600  
  1245.000000  371555600  371310000  371169100  371126200  371160700  
  1240.000000  371282900  371522700  371878000  372321000  372847000  
  1235.000000  373463200  374137200  374817500  375498000  376206400  
  1230.000000  376928400  377604200  378204400  378757000  379294700  
  1225.000000  379828600  380378500  380973900  381607200  382235400  
  1220.000000  382843900  383469000  384142100  384850700  385569900  
  1215.000000  386294700  387022900  387733300  388404200  389033600  
  1210.000000  389630400  390200400  390749600  391285200  391808200  
  1205.000000  392316900  392819200  393325500  393832100  394327000  
  1200.000000  394811800  395303200  395813900  396345700  396895800  
  1195.000000  397448300  397968900  398432000  398852900  399271900  
  1190.000000  399701200  400107600  400453900  400737500  400978400  
  1185.000000  401178600  401313500  401359700  401323000  401235700  
  1180.000000  401129300  401016000  400896600  400783100  400707000  
  1175.000000  400702200  400786900  400972400  401274400  401697900  
  1170.000000  402216700  402786900  403373800  403947100  404461100  
  1165.000000  404866200  405141100  405298300  405363000  405366800  
  1160.000000  405359700  405392300  405461800  405490400  405386800  
  1155.000000  405127600  404771700  404397800  404042400  403692700  
  1150.000000  403317400  402897300  402433700  401938500  401423000  
  1145.000000  400900900  400389900  399890300  399366500  398780200  
  1140.000000  398143100  397506300  396885000  396231300  395502500  
  1135.000000  394719700  393925300  393111300  392229100  391252400  
  1130.000000  390195000  389081900  387940100  386812700  385748100  
  1125.000000  384770100  383871000  383024500  382204400  381415400  
  1120.000000  380710900  380148300  379726900  379407800  379192500  
  1115.000000  379122900  379187100  379280600  379281500  379120600  
  1110.000000  378773300  378235700  377539800  376752000  375930600  
  1105.000000  375108600  374322900  373609600  372957400  372323300  
  1100.000000  371710800  371178800  370758400  370428300  370186700  
  1095.000000  370076500  370109800  370238100  370424200  370674700  
  1090.000000  370976100  371271600  371539900  371836000  372213200  
  1085.000000  372652400  373100100  373532900  373960700  374419100  
  1080.000000  374980100  375715200  376609300  377551100  378434500  
  1075.000000  379238600  379996300  380731600  381451200  382161600  
  1070.000000  382860900  383533800  384172800  384787600  385382600  
  1065.000000  385943700  386450800  386885800  387226600  387462100  
  1060.000000  387622900  387777200  387983500  388255300  388566500  
  1055.000000  388864700  389081900  389170100  389145200  389071600  
  1050.000000  388995400  388921100  388855300  388823000  388832500  
  1045.000000  388871100  388949200  389105700  389349700  389630600  
  1040.000000  389892500  390139400  390423300  390782000  391203800  
  1035.000000  391643300  392065200  392482200  392946900  393481500  
  1030.000000  394008200  394365900  394396600  394003900  393149000  
  1025.000000  391840100  390150100  388211300  386154900  384081500  
  1020.000000  382130500  380537900  379553400  379298900  379727500  
  1015.000000  380683500  381972400  383409400  384853500  386213500  
  1010.000000  387433700  388488800  389386200  390150300  390795400  
  1005.000000  391330600  391791000  392239200  392712300  393179400  
  1000.000000  393573700  393865000  394088500  394310600  394576300  
  995.000000   394878900  395159700  395343900  395405000  395403800  
  990.000000   395450100  395615000  395881200  396166200  396378700  
  985.000000   396460900  396408300  396271000  396125000  396016600  
  980.000000   395928300  395800100  395587100  395300600  394999600  
  975.000000   394744600  394550100  394379500  394192900  393998400  
  970.000000   393851900  393807900  393877500  394030500  394223100  
  965.000000   394419500  394597000  394748300  394888300  395049500  
  960.000000   395259500  395517700  395796900  396064200  396295200  
  955.000000   396477300  396619600  396765700  396973200  397261800  
  950.000000   397590900  397900800  398165600  398386800  398552100  
  945.000000   398637900  398660400  398696300  398825500  399052900  
  940.000000   399291800  399422800  399383200  399226600  399104900  
  935.000000   399162000  399413700  399738800  400002700  400176300  
  930.000000   400316100  400456600  400570700  400638000  400695100  
  925.000000   400783900  400880700  400918200  400872600  400796100  
  920.000000   400759800  400787100  400849200  400906500  400943300  
  915.000000   400972500  401013900  401064100  401085400  401037400  
  910.000000   400925900  400808100  400732000  400675700  400561800  
  905.000000   400340700  400050800  399790300  399629900  399560000  
  900.000000   399519200  399453600  399344200  399202900  399068600  
  895.000000   399002800  399052700  399198700  399350200  399410000  
  890.000000   399346800  399197700  399004100  398754000  398383400  
  885.000000   397821100  397041200  396088800  395056500  394014100  
  880.000000   392949900  391787200  390472300  389054900  387682800  
  875.000000   386522000  385687000  385253700  385302200  385887600  
  870.000000   386964100  388376600  389923300  391401800  392639200  
  865.000000   393550600  394183000  394665300  395096400  395483200  
  860.000000   395776500  395944500  396007900  396024500  396043800  
  855.000000   396056900  395990200  395784900  395490400  395238800  
  850.000000   395105000  395033000  394936600  394828700  394789300  
  845.000000   394833600  394892000  394926600  394996600  395179800  
  840.000000   395482400  395859300  396273600  396683800  397010400  
  835.000000   397192100  397284000  397435900  397744000  398154500  
  830.000000   398534200  398799500  398944800  398987700  398953200  
  825.000000   398900500  398896500  398949200  399016700  399094700  
  820.000000   399238000  399469200  399704000  399813200  399755800  
  815.000000   399622700  399536200  399528000  399539500  399527700  
  810.000000   399529200  399604400  399755000  399925000  400068300  
  805.000000   400184400  400293900  400416400  400567600  400734700  
  800.000000   400839400  400765700  400452300  399937800  399308800  
  795.000000   398653400  398086100  397761200  397787900  398131100  
  790.000000   398635700  399152300  399610500  399994200  400316700  
  785.000000   400624800  400957700  401271000  401457000  401480900  
  780.000000   401453700  401522400  401715800  401942100  402117800  
  775.000000   402242900  402359400  402489000  402631900  402789200  
  770.000000   402960200  403137100  403329700  403581900  403933800  
  765.000000   404357700  404747800  404995100  405081300  405090200  
  760.000000   405127900  405247300  405444400  405692000  405950400  
  755.000000   406169900  406320700  406415300  406476700  406505600  
  750.000000   406521700  406608000  406828600  407078800  407095600  
  745.000000   406685500  405909000  404978100  403987000  402798900  
  740.000000   401188400  399038800  396398900  393425800  390331200  
  735.000000   387342400  384620300  382169800  379843500  377465300  
  730.000000   374985800  372528700  370263900  368240900  366412400  
  725.000000   364843900  363793900  363486100  363853700  364601400  
  720.000000   365488000  366455300  367506700  368601400  369693000  
  715.000000   370751000  371705300  372466200  373051800  373617500  
  710.000000   374296200  375051500  375747800  376334400  376912400  
  705.000000   377627300  378525000  379508800  380425400  381202800  
  700.000000   381906200  382650200  383469000  384295700  385043600  
  695.000000   385666800  386165600  386597400  387077900  387695600  
  690.000000   388398200  389022400  389462000  389742500  389903400  
  685.000000   389922300  389826400  389779200  389954700  390358100  
  680.000000   390825000  391179900  391359100  391425000  391541600  
  675.000000   391888000  392527000  393344700  394164800  394898000  
  670.000000   395516100  395849900  395635100  395133600  394880500  
  665.000000   394903100  395039900  395266300  395622900  396050600  
  660.000000   396438200  396757700  397133300  397519500  397679100  
  655.000000   397744700  397541900  397314100  397275300  397559000  
  650.000000   398029100  
##END= 
