<?xml version="1.0" encoding="UTF-8"?>
<xrdMeasurements xmlns="http://www.xrdml.com/XRDMeasurement/1.3" xmlns:xsi="http://www.w3.org/2001/XMLSchema-instance" xsi:schemaLocation="http://www.xrdml.com/XRDMeasurement/1.3 http://www.xrdml.com/XRDMeasurement/1.3/XRDMeasurement.xsd" status="Completed">
	<comment>
		<entry>Configuration=New B-B configuration, Owner=User-1, Creation date=5/28/2009 9:30:43 PM</entry>
		<entry>Goniometer=PW3050/60 (Theta/Theta); Minimum step size 2Theta:0.001; Minimum step size Omega:0.001</entry>
		<entry>Sample stage=Spinner PW3064</entry>
		<entry>Diffractometer system=XPERT-PRO</entry>
		<entry>Measurement program=duloxetine, Owner=operator, Creation date=10/15/2009 4:55:32 AM</entry>
		<entry>Scan from 5 to 50 degree</entry>
	</comment>
	<xrdMeasurement measurementType="Scan" status="Completed">
		<usedWavelength intended="K-Alpha 1">
			<kAlpha1 unit="Angstrom">1.540598</kAlpha1>
			<kAlpha2 unit="Angstrom">1.544426</kAlpha2>
			<kBeta unit="Angstrom">1.392250</kBeta>
			<ratioKAlpha2KAlpha1>0.500000</ratioKAlpha2KAlpha1>
		</usedWavelength>
		<incidentBeamPath>
			<radius unit="mm">240.000</radius>
			<xRayTube>
				<tension unit="kV">45</tension>
				<current unit="mA">40</current>
				<anodeMaterial>Cu</anodeMaterial>
			</xRayTube>
			<divergenceSlit xsi:type="fixedDivergenceSlitType">
				<angle unit="deg">1.000</angle>
			</divergenceSlit>
		</incidentBeamPath>
		<diffractedBeamPath>
			<radius unit="mm">240.000</radius>
			<receivingSlit>
				<height unit="mm">0.100</height>
			</receivingSlit>
		</diffractedBeamPath>
		<scan appendNumber="0" mode="Continuous" scanAxis="Gonio" status="Completed">
			<header>
				<startTimeStamp>2009-10-21T09:45:58</startTimeStamp>
				<author>
					<name>public</name>
				</author>
				<source>
					<applicationSoftware version="2.2.2">X'Pert HighScore Plus</applicationSoftware>
				</source>
			</header>
			<dataPoints>
				<positions axis="2Theta" unit="deg">
					<startPosition>5.013</startPosition>
					<endPosition>49.993</endPosition>
				</positions>
				<commonCountingTime unit="seconds">18.685</commonCountingTime>
				<intensities unit="counts">51482 47370 45020 41408 38609 35453 32419 29550 26729 24121 21538 19413 17696 16927 16671 17361 18568 17954 16065 15108 14161 12748 12422 12379 12261 11941 11729 11597 11461 11408 11372 11201 11058 10945 10925 10763 10706 10671 10664 10437 10357 10391 10283 10211 10276 10169 10117 10178 10206 10022 9841 9921 9945 9953 9858 9725 9773 9673 9562 9584 9484 9468 9488 9316 9446 9373 9285 9146 9165 9247 9015 9098 9188 9179 8947 8914 9010 8942 9034 8911 8958 8815 8838 8787 8771 8670 8579 8647 8594 8764 8742 8561 8631 8535 8492 8451 8398 8446 8340 8494 8387 8274 8364 8269 8223 8372 8412 8330 8151 8249 8158 8276 8268 8159 8055 8203 8293 8049 8004 8045 8077 8026 7967 7880 7971 7890 7910 7857 7775 7740 7812 7850 7748 7721 7714 7735 7722 7702 7697 7845 7779 7528 7501 7650 7533 7544 7635 7477 7517 7643 7660 7656 7595 7555 7493 7433 7464 7413 7355 7474 7532 7463 7456 7528 7486 7447 7424 7435 7316 7407 7407 7178 7301 7272 7229 7211 7193 7234 7235 7342 7188 7157 7047 7147 7201 7162 7248 7227 7336 7585 7430 7524 7683 7789 8140 8198 8620 8916 9503 10262 11383 12949 14317 15754 17844 24215 30836 35748 38874 32108 21299 15430 10824 8166 7590 7416 7271 7165 7092 6884 6782 6736 6733 6732 6786 7012 6904 6919 6936 6715 6618 6444 6393 6418 6508 6555 6434 6376 6386 6390 6394 6425 6390 6324 6424 6434 6337 6249 6293 6358 6341 6332 6374 6370 6330 6313 6314 6314 6303 6348 6369 6419 6499 6558 6554 6818 7085 7265 7605 7939 8534 9109 9216 8683 7798 6958 6203 6085 6001 5988 5991 5865 5922 6006 5882 5899 5923 5828 5847 5843 5868 5844 5915 5761 5857 5875 5892 5919 5795 5905 5711 5855 5695 6042 5798 5704 5778 5684 5702 5675 5784 5730 5669 5794 5858 5670 5657 5715 5675 5577 5638 5519 5555 5632 5367 5446 5499 5660 5643 5608 5547 5543 5595 5619 5502 5622 5641 5527 5561 5518 5519 5645 5614 5611 5711 5824 5846 5796 5740 5724 5721 5639 5546 5495 5488 5413 5408 5408 5336 5357 5331 5409 5456 5485 5486 5453 5427 5523 5560 5557 5531 5505 5508 5440 5483 5372 5389 5451 5537 5445 5402 5500 5480 5376 5398 5388 5473 5402 5510 5408 5417 5445 5399 5480 5410 5568 5345 5472 5559 5445 5563 5547 5436 5366 5454 5454 5466 5448 5352 5466 5425 5487 5683 5523 5638 5649 5643 5723 5747 5759 5643 5628 5708 5834 5702 6040 6046 6035 6256 6445 6810 7477 8112 8761 9452 10829 13212 15558 16394 16876 15046 11854 8982 7201 6432 6217 6177 6037 5862 5773 5703 5680 5722 5726 5757 5729 5707 5716 5762 5769 5743 5833 5700 5659 5696 5773 5814 5700 5652 5706 5658 5760 5775 5803 5817 5807 5837 5790 5874 5921 6009 6099 6259 6276 6293 6459 6755 7005 7213 7788 8217 8629 9319 10175 11306 12259 13895 14689 16093 15772 16349 15168 12232 10305 7536 7070 6706 6608 6766 6602 6895 7135 7597 7965 8665 9577 10399 11601 13829 16495 20893 22917 25174 27742 25208 24230 18105 13607 9991 8360 7606 7199 6932 6947 6758 6622 6466 6396 6457 6393 6309 6351 6366 6418 6443 6395 6439 6443 6425 6482 6479 6464 6499 6530 6579 6566 6568 6712 6840 6954 6988 7006 7067 6954 6911 6853 6696 6520 6467 6474 6455 6471 6564 6501 6426 6358 6469 6376 6410 6554 6639 6640 6539 6588 6670 6615 6696 6754 6914 7028 6859 6966 6945 7109 7089 7088 7361 7614 7917 8567 9054 9882 10875 12220 14266 16652 20232 23503 30258 36090 44747 53310 57733 53537 48675 32475 22945 14344 10626 9513 9204 9388 9272 9247 8632 8148 7786 7241 7012 7052 6868 6775 6813 6885 6979 7106 7074 7203 7430 7674 8031 8764 9742 10981 12877 14254 16643 21231 28448 36880 44315 48577 52555 47654 37681 29092 19015 12761 9739 8092 7632 7472 7441 7241 7059 7004 7184 7407 7616 7952 8384 8855 9431 9903 9838 9039 8312 7399 6650 6324 6160 6024 5987 5862 5944 5867 5917 5870 5917 5839 5822 5909 5870 5672 5697 5890 5777 5734 5844 5764 5707 5755 5775 5652 5819 5749 5822 5810 5822 6113 6270 6402 6533 6813 7242 7933 8948 9407 10470 11087 11781 10704 9844 8746 7506 6556 6247 5907 5869 5819 6053 6251 6563 7030 7325 8588 9495 9963 11233 12793 15216 18467 19735 20375 17953 14466 11293 8409 6897 6215 5894 5921 5904 5829 5802 5749 5686 5574 5433 5378 5298 5214 5214 5170 5148 5195 5151 4914 4794 4803 4806 4759 4769 4818 4789 4793 4789 4832 4694 4734 4799 4838 4838 4894 5017 5041 5228 5388 5566 5663 5528 5548 5199 5099 4834 4764 4762 4513 4545 4647 4571 4588 4809 4877 4924 4875 4836 4998 5189 5331 5395 5466 5527 5791 6070 6714 7365 7582 8633 8610 8440 8186 7098 6432 5830 5372 5040 4852 4714 4624 4594 4599 4532 4642 4588 4588 4616 4668 4623 4652 4649 4586 4679 4708 4848 4936 5058 5164 5239 5389 5690 6104 6448 6909 7667 8639 10131 11882 13801 16197 18144 20070 22907 26075 28579 30238 32880 36694 37911 33229 27384 21914 15321 9790 7372 5789 5253 5124 5147 5083 4974 5093 5313 5386 5601 5862 6244 6709 6958 6802 6525 6088 5280 4990 4622 4358 4407 4237 4217 4080 4245 4152 4233 4114 4114 4064 4138 4132 4140 4055 4078 4043 4167 4099 4326 4262 4366 4557 4725 5015 5464 6064 6128 6820 7525 7199 6851 6276 5618 4975 4609 4261 3998 3933 3971 3968 3971 3950 3965 4062 3987 3864 3811 3833 3841 3856 3795 3735 3759 3735 3780 3836 3801 3743 3800 3817 3822 3977 4066 4034 4043 4089 4206 4338 4439 4604 4909 5386 5883 6411 6799 7111 6695 5911 5409 4865 4391 3972 3896 3776 3831 3718 3609 3638 3713 3677 3760 3705 3659 3551 3533 3611 3506 3484 3437 3492 3552 3531 3435 3546 3507 3543 3580 3486 3456 3413 3482 3406 3485 3466 3450 3478 3448 3541 3448 3414 3489 3596 3525 3485 3631 3677 3890 4004 4251 4300 4664 4890 4978 4824 4526 4274 4039 3999 3714 3559 3435 3383 3282 3301 3312 3299 3273 3220 3181 3212 3260 3196 3144 3157 3160 3171 3186 3151 3151 3152 3138 3138 3182 3213 3133 3139 3218 3240 3193 3152 3254 3292 3290 3353 3471 3684 3847 3844 3972 4122 4226 4258 4225 4133 3915 3713 3775 3649 3632 3693 3753 3649 3382 3263 3271 3155 3059 3071 3076 3072 2988 2984 2855 2932 3021 3022 2937 2969 2914 2948 2964 3018 2970 2919 2929 2948 2981 2931 2967 2826 2914 2881 2953 2931 2920 3008 2920 2993 2960 3000 3008 2971 3039 2915 2868 2942 3005 2928 2946 2919 2868 2844 2883 2877 2920 2955 2965 2953 2985 3013 3093 3221 3277 3347 3461 3542 3618 3654 3531 3399 3239 3053 2953 2901 2858 2814 2794 2730 2719 2795 2828 2823 2783 2820 2800 2819 2917 2935 2847 2809 2870 2844 2810 2883 2886 2915 2903 2982 2954 3091 3121 3111 3212 3493 3502 3750 3890 4170 4450 4407 4281 3936 4093 3677 3302 3221 2998 2842 2776 2773 2821 2828 2793 2894 2835 2940 2839 2870 2781 2728 2750 2617 2652 2594 2636 2591 2616 2601 2666 2727 2792 2778 2652 2815 2843 2873 2810 2825 2870 2797 2738 2840 2813 2824 2882 2878 2788 2809 2835 2845 2810 2726 2711 2708 2653 2626 2647 2615 2502 2502 2556 2516 2486 2541 2574 2563 2649 2699 2663 2678 2716 2736 2717 2688 2697 2759 2659 2567 2544 2541 2482 2396 2446 2493 2469 2531 2562 2529 2598 2609 2566 2596 2607 2564 2631 2632 2576 2539 2558 2568 2475 2478 2524 2453 2545 2585 2555 2522 2521 2645 2511 2604 2604 2625 2564 2572 2659 2548 2553 2443 2393 2445 2568 2577 2638 2619 2654 2580 2572 2638 2512 2495 2384 2370 2385 2369 2378 2404 2378 2442 2413 2429 2534 2550 2662 2647 2635 2614 2534 2450 2416 2409 2413 2426 2371 2369 2412 2418 2389 2341 2340 2358 2341 2351 2382 2463 2498 2492 2545 2551 2566 2556 2554 2614 2568 2487 2487 2503 2448 2490 2512 2539 2692 2846 2890 2961 3109 3311 3394 3405 3396 3350 3243 3312 3321 3261 3178 3012 2759 2754 2575 2487 2401 2323 2269 2261 2222 2152 2227 2172 2214 2206 2245 2224 2142 2166 2227 2112 2257 2233 2216 2223 2098 2210 2137 2179 2144 2190 2256 2188 2199 2296 2161 2195 2231 2206 2163 2111 2168 2238 2170 2161 2228 2171 2240 2240 2265 2241 2239 2290 2288 2305 2388 2319 2336 2328 2335 2435 2505 2530 2535 2603 2699 2853 2897 2800 2767 2782 2807 2797 2817 2885 2886 2920 2985 2838 2676 2663 2562 2455 2315 2211 2194 2178 2187 2167 2128 2134 2097 2075 2072 2087 2095 2080 2115 2178 2133 2041 2041 2042 2030 2099 2027 2096 2069 2144 2152 2140 2188 2198 2251 2238 2170 2299 2216 2267 2266 2229 2135 2125 2097 2062 2007 2087 2089 2166 2082 2125 2182 2198 2186 2251 2310 2260 2362 2453 2418 2430 2367 2324 2230 2251 2223 2245 2178 2159 2172 2143 2192 2208 2201 2144 2189 2232 2227 2166 2211 2253 2244 2283 2335 2403 2565 2671 2782 2841 2798 2751 2718 2685 2595 2589 2692 2787 2805 2686 2516 2463 2512 2551 2478 2376 2260 2177 2180 2136 2052 2054 2117 2136 2125 2048 1993 2007 1970 2015 2059 2120 2063 2076 2048 2064 1941 2080 2121 2134 2086 2139 2193 2167 2191 2278 2239 2329 2477 2477 2518 2687 2662 2686 2719 2560 2388 2300 2456 2264 2134 2101 2086 2055 2073 2119 2186 2196 2164 2244 2308 2353 2414 2379 2439 2445 2421 2450 2440 2457 2474 2441 2440 2421 2441 2513 2526 2440 2367 2323 2268 2239 2171 2082 2028 2018 1981 1966 1971 1997 2007 1979 1976 1979 2002 2036 2010 2017 2080 2086 2166 2281 2306 2330 2419 2538 2678 2867 2977 3171 3329 3388 3182 3053 2797 2683 2519 2376 2288 2159 1990 1954 1945 1953 1954 1889 1880 1787 1854 1905 1953 1961 1948 1899 1876 1883 1789 1868 1886 1895 1886 1964 1904 1887 1933 1996 1997 2043 2158 2140 2125 2066 2056 2051 2030 2008 1980 1886 1892</intensities>
			</dataPoints>
			<nonAmbientPoints type="Temperature" unit="K">
				<measurementTimes unit="seconds" deltaTime="1">0</measurementTimes>
				<nonAmbientValues>298.000</nonAmbientValues>
			</nonAmbientPoints>
		</scan>
	</xrdMeasurement>
</xrdMeasurements>
