##TITLE= [S.POINT] [10.00s x 10] [CCD: -50°C] 
##JCAMP-DX= 4.24
##DATA TYPE= INFRARED SPECTRUM
##ORIGIN= Exported PE Spectrum Data File
##OWNER= RamanStation DJ3C1Z1S
##DATE= 09/03/26
##TIME= 16:17:45.00
##SPECTROMETER/DATA SYSTEM= PERKIN-ELMER RAMAN IR
##INSTRUMENT PARAMETERS=
  DETECTOR=Echelle
##DELTAX= -1.00
##XUNITS= Raman Shift / cm-1
##YUNITS= INT
##XFACTOR= 1.00
##YFACTOR= 0.01000000000000000000
##FIRSTX= 3500.00
##LASTX= 150.00
##NPOINTS= 3351
##FIRSTY= 24010.207025
##MAXY= 76412.990823
##MINY= 16960.943620
##XYDATA= (X++(Y..Y))
  3500.000000   2401020   2008423   2131914   2046333   2045324  
  3495.000000   2238120   2102780   1906018   2446885   2012571  
  3490.000000   2003798   1999928   2133408   2174094   1962803  
  3485.000000   1696094   1907120   1981270   2047497   2164977  
  3480.000000   2169733   2018334   2104171   2210718   1825188  
  3475.000000   1984332   2168190   2318359   2117338   2205369  
  3470.000000   2240662   2285295   2223570   1967691   1713997  
  3465.000000   1912340   2313536   2107254   1779708   1976074  
  3460.000000   2059018   1922680   1980605   2205395   2027570  
  3455.000000   1775212   2087693   1926804   2020748   1871643  
  3450.000000   2019817   2070966   2254078   1863168   1902428  
  3445.000000   2283955   2105111   1927255   2005700   2009042  
  3440.000000   2010393   2131640   2344912   2046194   1904704  
  3435.000000   2085836   2133225   2119455   2178499   2033552  
  3430.000000   2250161   2192804   2200388   2204149   2237895  
  3425.000000   2096951   1947762   1965520   2161386   2054224  
  3420.000000   1918120   2034825   2130446   2093351   2049261  
  3415.000000   2104240   2073268   2250933   2069415   2171733  
  3410.000000   2237412   2158770   2155484   2129525   2034636  
  3405.000000   2247762   2159292   2082586   1941486   1998168  
  3400.000000   1929798   2174358   1996652   2021051   1829592  
  3395.000000   2032848   2033756   2140356   2249444   2219371  
  3390.000000   1797399   2092946   2135132   1943142   2037914  
  3385.000000   1880598   2057518   1969713   2075709   2213451  
  3380.000000   2159561   2083395   2101558   2210821   2038091  
  3375.000000   1959133   2051448   1973090   1997817   2162765  
  3370.000000   2098392   1991878   2002814   2006874   2064761  
  3365.000000   2064363   2064689   2007398   2178061   2008619  
  3360.000000   1985873   2139538   2187942   2066142   2045006  
  3355.000000   2018583   2077473   2008426   2084860   2090652  
  3350.000000   2041642   2069087   2011758   2028536   1953210  
  3345.000000   1903141   2005426   2004926   1981203   2172167  
  3340.000000   2015661   1986550   2070991   2005019   2044561  
  3335.000000   2034316   2130237   2087626   1958224   1972359  
  3330.000000   2006336   1998144   1991212   2071465   1904222  
  3325.000000   1984596   1979562   2027302   1969977   2063741  
  3320.000000   1995377   2226359   2068433   2019423   2078846  
  3315.000000   2100054   2026008   2069211   1949872   1996891  
  3310.000000   1918263   2007641   2086448   1991413   1953656  
  3305.000000   2012637   2015771   2026648   1935817   2000640  
  3300.000000   1987831   2021337   2026302   2076996   2021580  
  3295.000000   2003891   2123662   2046683   2189415   2016211  
  3290.000000   2018010   2037308   2028513   1999840   2017461  
  3285.000000   2104154   2123664   2120629   2126644   2066348  
  3280.000000   2067743   2038540   2104588   1979859   2042387  
  3275.000000   2075284   2038547   2113515   2093209   2068041  
  3270.000000   2004787   2057607   1999824   2067137   2028472  
  3265.000000   2040644   1985398   2059473   2116823   2111650  
  3260.000000   2059596   2009136   1987324   1913819   1961305  
  3255.000000   1986897   2038569   2015398   2032509   2054624  
  3250.000000   1968049   1970605   2119777   2173631   1935427  
  3245.000000   1987218   2039377   2069347   2016580   2064571  
  3240.000000   1999849   2018679   2036306   1985780   2042273  
  3235.000000   2069934   2011538   1938417   2058723   2063483  
  3230.000000   2016462   2004013   2079396   2007855   1941239  
  3225.000000   2104012   2044008   1934326   2055994   2002288  
  3220.000000   1989582   2056562   2101636   1944776   2069722  
  3215.000000   2077696   2068830   2077453   2127820   2106984  
  3210.000000   2097361   2087880   2063912   2016440   2009563  
  3205.000000   2010401   2108582   2021596   2028737   1987899  
  3200.000000   2020141   2021781   2049679   2001602   2027929  
  3195.000000   2067054   1969966   2021549   2011681   2015649  
  3190.000000   2062487   2021291   2005884   2091606   2026495  
  3185.000000   2008987   2119582   2051625   2091793   2135571  
  3180.000000   2127565   2087143   2017760   2023635   2021414  
  3175.000000   2004702   2034746   2041505   2017914   2011510  
  3170.000000   2071493   2109829   2077060   1955501   2010819  
  3165.000000   2042440   2115160   2117067   2053545   2009036  
  3160.000000   2031805   2114354   2070665   2025488   2040817  
  3155.000000   2046292   2021138   2028277   2213829   2063443  
  3150.000000   2036673   2067142   2121992   2020066   2054177  
  3145.000000   2097411   2041373   2019671   2107350   2129894  
  3140.000000   2049476   2068006   2076566   2080392   2084592  
  3135.000000   2057869   2159254   2129563   2118846   2128987  
  3130.000000   2125258   2153941   2111352   2082682   2134946  
  3125.000000   2090761   2046591   2072516   2107985   2042755  
  3120.000000   2038163   2057257   2094365   2063295   2066627  
  3115.000000   2117260   2056599   2061736   2080922   2131567  
  3110.000000   2082096   2080821   2071954   2061661   2021810  
  3105.000000   2076718   2121267   2095680   2037979   2045901  
  3100.000000   2079151   2123801   2052780   2091448   2111168  
  3095.000000   2069057   2033207   2114994   2069350   2076709  
  3090.000000   2102610   2106764   2112096   2093681   2037383  
  3085.000000   2035614   2092004   2108764   2042452   2051644  
  3080.000000   2112401   2088549   2044654   2047853   2069337  
  3075.000000   2087880   2055307   2044760   2078833   2031351  
  3070.000000   2067377   2077195   2080565   2040249   2096420  
  3065.000000   2035711   2062445   2004488   2051996   2013321  
  3060.000000   2037187   2005310   2036086   1983199   2049741  
  3055.000000   1992028   2017920   2061760   2078830   2085952  
  3050.000000   2046246   1998958   1967530   1997098   1997539  
  3045.000000   2020252   2007489   2020156   1993434   2030284  
  3040.000000   2008081   1982098   1992389   2008549   1949260  
  3035.000000   1951040   1990974   2038667   2035893   2058373  
  3030.000000   2034553   2043286   2025964   1964899   1998926  
  3025.000000   2044216   2024529   2029368   1995523   2019631  
  3020.000000   1964478   1955065   1970874   2025035   1953179  
  3015.000000   2017731   2035379   1999703   2019729   2036729  
  3010.000000   2000501   1964511   2007519   1981022   2024842  
  3005.000000   2025502   2015643   2052936   2011241   2002360  
  3000.000000   1996378   2001135   1996536   2033522   2048742  
  2995.000000   2072378   2534842   3440971   2023670   2023408  
  2990.000000   2013622   2029108   2049239   2038042   2060833  
  2985.000000   2044826   2027637   2027744   2015697   2058623  
  2980.000000   2066295   2054222   2065135   2052526   2043321  
  2975.000000   2077334   2034204   2049615   2072023   2025426  
  2970.000000   2073340   2077275   2031539   2078086   2094953  
  2965.000000   2080431   2060795   2046784   2114263   2074404  
  2960.000000   2080549   2096718   2107414   2095125   2040249  
  2955.000000   2024841   2029586   2075050   2089499   2075641  
  2950.000000   2078746   2064251   2079451   2095896   2124358  
  2945.000000   2142914   2117742   2084883   2108336   2117645  
  2940.000000   2101524   2115517   2122478   2099802   2159497  
  2935.000000   2151738   2121916   2099106   2117492   2095111  
  2930.000000   2099411   2125382   2107742   2151085   2124494  
  2925.000000   2128936   2114842   2129169   2123225   2132408  
  2920.000000   2132181   2154803   2145160   2149728   2154357  
  2915.000000   2181270   2170704   2202559   2194824   2203436  
  2910.000000   2190014   2190144   2218340   2194572   2172373  
  2905.000000   2215828   2202118   2185807   2155509   2144699  
  2900.000000   2167478   2122005   2116139   2110035   2115705  
  2895.000000   2159232   2141749   2118897   2106101   2137102  
  2890.000000   2103765   2093007   2097588   2115144   2078854  
  2885.000000   2091175   2080078   2100745   2122286   2076865  
  2880.000000   2081710   2106958   2125392   2113439   2120261  
  2875.000000   2109065   2133586   2098954   2076105   2073651  
  2870.000000   2083365   2103992   2074553   2120719   2098212  
  2865.000000   2089701   2088716   2059868   2056996   2050080  
  2860.000000   2100006   2096031   2091520   2092597   2045965  
  2855.000000   2049486   2099283   2098850   2086436   2067912  
  2850.000000   2075701   2068147   2084822   2094456   2089552  
  2845.000000   2067860   2047013   2083910   2048398   2053504  
  2840.000000   2053946   2087040   2069187   2062875   2090913  
  2835.000000   2085715   2084430   2090031   2093496   2082351  
  2830.000000   2055520   2081554   2087442   2054426   2058088  
  2825.000000   2093022   2075051   2088957   2078737   2075594  
  2820.000000   2108355   2031076   2097596   2091525   2070118  
  2815.000000   2043833   2118252   2100521   2073472   2095781  
  2810.000000   2087695   2084994   2084877   2086066   2098377  
  2805.000000   2096869   2084799   2063848   2078898   2082074  
  2800.000000   2049079   2069990   2081161   2080119   2054273  
  2795.000000   2078282   2118924   2097156   2096612   2106514  
  2790.000000   2090140   2046371   2068629   2076597   2091932  
  2785.000000   2097513   2109408   2088351   2080553   2075612  
  2780.000000   2077990   2092386   2117411   2105861   2105844  
  2775.000000   2066387   2084604   2140409   2105417   2070295  
  2770.000000   2076831   2109702   2123568   2120736   2124088  
  2765.000000   2115886   2092275   2101452   2118274   2132134  
  2760.000000   2129728   2129129   2122928   2112752   2095124  
  2755.000000   2106682   2112863   2120341   2134489   2149348  
  2750.000000   2157491   2098360   2108789   2125679   2138961  
  2745.000000   2126397   2142705   2151155   2151114   2154864  
  2740.000000   2110912   2099014   2113811   2112913   2139839  
  2735.000000   2150612   2136072   2149138   2144148   2149565  
  2730.000000   2144606   2158418   2172310   2168936   2155353  
  2725.000000   2125888   2167679   2165568   2174476   2171282  
  2720.000000   2172274   2180564   2202005   2151436   2174097  
  2715.000000   2180015   2192711   2199892   2176562   2167518  
  2710.000000   2193402   2172598   2180902   2195870   2229950  
  2705.000000   2215600   2207295   2179931   2197023   2175831  
  2700.000000   2206805   2203266   2197727   2186403   2183034  
  2695.000000   2195435   2201490   2224853   2218860   2231750  
  2690.000000   2234413   2221364   2204958   2229937   2230452  
  2685.000000   2208495   2237446   2239364   2227613   2226459  
  2680.000000   2233548   2242590   2225763   2202443   2226180  
  2675.000000   2205698   2214519   2242655   2214237   2194182  
  2670.000000   2198687   2231448   2240330   2232091   2211973  
  2665.000000   2237482   2247411   2247289   2225354   2220389  
  2660.000000   2239406   2216902   2231960   2202824   2239768  
  2655.000000   2244938   2240323   2221101   2250719   2223982  
  2650.000000   2239216   2233162   2231245   2242230   2225085  
  2645.000000   2215693   2227993   2235112   2209187   2241752  
  2640.000000   2225930   2209751   2235277   2227515   2222312  
  2635.000000   2221257   2206585   2187250   2230621   2230605  
  2630.000000   2197680   2205629   2210532   2209093   2234368  
  2625.000000   2220936   2233578   2256267   2258430   2254336  
  2620.000000   2238455   2209675   2226498   2211913   2222892  
  2615.000000   2237240   2241251   2253775   2222419   2247703  
  2610.000000   2238983   2217458   2234590   2227486   2240130  
  2605.000000   2216184   2238340   2222054   2249003   2236520  
  2600.000000   2231835   2214788   2236240   2250876   2205789  
  2595.000000   2211870   2236696   2262600   2225073   2231804  
  2590.000000   2240603   2208002   2223599   2218826   2217429  
  2585.000000   2201559   2234797   2235797   2234313   2249975  
  2580.000000   2251377   2224053   2218624   2228956   2249356  
  2575.000000   2222304   2220663   2234205   2247161   2247079  
  2570.000000   2234693   2220057   2230282   2222795   2212868  
  2565.000000   2220000   2222964   2214728   2208414   2218213  
  2560.000000   2216151   2227357   2220206   2213037   2226113  
  2555.000000   2233496   2215427   2212027   2224827   2198825  
  2550.000000   2223872   2223300   2230901   2205301   2224722  
  2545.000000   2227708   2218588   2227791   2210846   2193930  
  2540.000000   2200547   2230464   2218491   2239911   2204703  
  2535.000000   2222375   2219824   2216365   2206644   2213312  
  2530.000000   2224764   2217747   2233135   2221772   2237199  
  2525.000000   2211214   2221770   2235817   2201412   2209613  
  2520.000000   2228029   2219284   2212607   2216306   2227121  
  2515.000000   2214956   2214816   2202245   2218809   2226320  
  2510.000000   2234308   2239265   2209237   2225695   2231113  
  2505.000000   2216608   2220488   2219404   2229578   2230900  
  2500.000000   2223632   2223710   2236466   2217624   2213838  
  2495.000000   2215100   2198580   2217517   2236090   2220661  
  2490.000000   2229628   2238553   2234043   2237330   2245842  
  2485.000000   2250917   2239176   2239385   2241444   2246896  
  2480.000000   2241699   2240497   2259650   2261831   2243577  
  2475.000000   2255705   2260846   2255254   2257674   2266004  
  2470.000000   2240901   2261515   2258665   2242110   2257271  
  2465.000000   2258073   2250120   2250266   2272285   2268679  
  2460.000000   2271637   2268242   2287759   2283246   2284247  
  2455.000000   2293773   2285456   2293164   2276855   2287142  
  2450.000000   2300104   2293400   2290856   2278121   2292646  
  2445.000000   2304688   2300958   2308501   2300702   2280906  
  2440.000000   2296653   2316999   2336343   2314117   2311678  
  2435.000000   2288227   2327817   2304289   2309859   2324017  
  2430.000000   2327362   2307559   2323346   2321628   2328968  
  2425.000000   2349825   2335561   2315644   2317804   2339774  
  2420.000000   2342422   2347083   2356012   2362442   2349810  
  2415.000000   2351025   2360259   2361845   2359368   2364420  
  2410.000000   2379117   2357157   2392824   2358355   2354147  
  2405.000000   2367115   2359775   2346695   2371221   2394346  
  2400.000000   2390499   2401342   2394933   2405971   2396316  
  2395.000000   2400417   2427138   2422377   2416287   2422083  
  2390.000000   2439684   2425436   2399515   2422594   2455796  
  2385.000000   2442612   2444219   2443677   2454308   2456622  
  2380.000000   2446577   2435662   2436086   2443620   2450264  
  2375.000000   2449998   2459589   2448701   2461634   2468366  
  2370.000000   2471425   2475400   2461613   2449744   2445866  
  2365.000000   2469556   2463398   2488435   2493621   2482845  
  2360.000000   2462782   2461884   2479949   2480626   2467167  
  2355.000000   2483820   2499329   2486392   2495900   2502427  
  2350.000000   2495817   2490525   2486905   2511331   2521236  
  2345.000000   2510055   2524512   2513885   2501960   2527805  
  2340.000000   2531833   2548577   2540024   2538547   2521217  
  2335.000000   2518753   2553259   2540696   2539295   2557102  
  2330.000000   2556820   2521375   2570451   2523967   2543092  
  2325.000000   2535508   2531704   2522806   2524212   2539216  
  2320.000000   2554084   2558518   2548706   2527897   2519540  
  2315.000000   2541344   2539228   2531533   2554302   2544752  
  2310.000000   2538504   2543248   2547334   2560665   2566935  
  2305.000000   2578220   2535559   2551265   2554417   2535431  
  2300.000000   2544170   2556522   2550111   2553546   2583751  
  2295.000000   2543442   2558743   2577619   2576602   2564980  
  2290.000000   2557758   2553993   2536045   2536721   2541080  
  2285.000000   2551024   2542705   2549026   2553912   2554059  
  2280.000000   2563410   2557814   2550511   2558717   2537366  
  2275.000000   2518515   2569707   2564175   2533896   2547324  
  2270.000000   2527435   2532619   2554227   2557958   2550887  
  2265.000000   2529302   2537873   2548564   2542105   2506604  
  2260.000000   2531184   2537222   2512190   2534096   2536883  
  2255.000000   2531247   2527954   2529234   2504537   2537970  
  2250.000000   2529859   2527380   2520950   2524961   2504606  
  2245.000000   2524260   2508693   2519964   2523632   2527738  
  2240.000000   2497339   2494679   2498910   2505560   2485776  
  2235.000000   2489563   2495180   2482013   2473894   2467972  
  2230.000000   2467630   2481033   2484113   2486844   2466870  
  2225.000000   2489369   2500229   2495519   2485370   2473102  
  2220.000000   2497462   2484897   2469703   2464412   2460657  
  2215.000000   2464345   2457015   2464406   2438271   2449538  
  2210.000000   2450225   2444622   2454433   2465284   2455172  
  2205.000000   2445007   2434441   2433023   2418214   2425378  
  2200.000000   2422106   2413700   2431231   2420341   2424031  
  2195.000000   2407430   2424139   2428223   2420608   2409259  
  2190.000000   2403308   2398029   2433473   2423260   2438096  
  2185.000000   2413941   2424842   2410794   2418340   2428526  
  2180.000000   2399980   2370749   2406509   2396981   2409324  
  2175.000000   2406585   2410663   2439616   2421435   2401804  
  2170.000000   2423411   2428806   2400014   2411767   2420169  
  2165.000000   2417276   2425441   2423101   2439012   2419739  
  2160.000000   2441376   2410297   2431235   2446518   2428027  
  2155.000000   2465164   2446268   2448026   2470492   2460282  
  2150.000000   2463556   2446750   2459781   2471650   2475225  
  2145.000000   2482213   2482430   2488229   2515638   2530827  
  2140.000000   2532149   2567209   2563119   2586359   2564135  
  2135.000000   2589571   2565915   2586897   2576867   2562257  
  2130.000000   2548851   2559979   2550762   2537108   2523737  
  2125.000000   2511279   2488626   2465837   2448680   2466335  
  2120.000000   2416811   2394309   2375051   2380017   2383119  
  2115.000000   2358245   2343764   2332022   2331874   2321915  
  2110.000000   2311416   2306430   2283109   2284240   2281315  
  2105.000000   2279735   2280793   2257464   2269990   2272425  
  2100.000000   2262319   2251790   2262485   2261956   2260606  
  2095.000000   2251520   2257334   2245944   2251769   2245003  
  2090.000000   2254563   2256453   2279921   2277999   2271433  
  2085.000000   2272041   2250636   2236592   2259654   2266685  
  2080.000000   2256587   2265328   2264886   2262621   2287218  
  2075.000000   2295544   2283666   2272762   2281080   2271924  
  2070.000000   2285448   2283362   2301907   2288647   2302099  
  2065.000000   2320947   2319578   2314735   2334839   2328523  
  2060.000000   2336144   2348401   2361406   2360924   2367415  
  2055.000000   2378232   2377083   2373794   2374895   2397463  
  2050.000000   2400947   2426125   2407870   2413259   2421652  
  2045.000000   2421249   2443305   2454089   2441369   2465648  
  2040.000000   2465485   2481535   2486735   2478489   2490730  
  2035.000000   2496566   2520532   2528152   2525268   2556632  
  2030.000000   2553112   2561907   2567140   2590340   2587316  
  2025.000000   2606530   2605900   2605382   2608455   2628081  
  2020.000000   2674186   2648715   2651173   2670503   2688132  
  2015.000000   2664508   2675508   2683214   2700694   2700855  
  2010.000000   2707391   2723158   2722458   2758689   2763016  
  2005.000000   2762523   2774584   2765711   2775695   2804539  
  2000.000000   2785137   2780628   2798609   2828220   2831822  
  1995.000000   2813316   2833161   2850340   2845957   2838467  
  1990.000000   2838374   2839299   2849948   2851030   2855867  
  1985.000000   2867700   2893323   2905081   2907162   2896059  
  1980.000000   2890732   2894961   2903761   2906688   2902617  
  1975.000000   2934277   2927145   2925208   2926914   2930949  
  1970.000000   2907993   2935390   2915988   2924088   2925451  
  1965.000000   2936092   2942183   2927552   2922589   2951665  
  1960.000000   2927653   2936979   2950268   2946864   2952982  
  1955.000000   2935653   2946581   2947988   2938633   2939927  
  1950.000000   2943282   2952460   2945292   2938931   2940718  
  1945.000000   2928607   2926629   2921686   2940763   2946977  
  1940.000000   2931961   2936988   2930621   2914005   2917339  
  1935.000000   2912759   2922211   2930885   2919396   2914824  
  1930.000000   2908583   2902744   2916898   2912632   2913941  
  1925.000000   2902364   2910614   2910025   2909403   2892842  
  1920.000000   2899806   2894414   2901246   2887428   2902382  
  1915.000000   2894016   2875642   2885302   2890211   2855212  
  1910.000000   2893872   2907913   2909742   2900237   2879635  
  1905.000000   2878141   2871941   2869638   2854542   2879014  
  1900.000000   2897116   2888645   2863699   2866542   2876827  
  1895.000000   2888258   2873938   2881478   2887742   2857469  
  1890.000000   2861780   2854461   2843994   2865332   2863486  
  1885.000000   2865530   2855211   2849947   2858191   2854744  
  1880.000000   2863067   2858135   2860788   2855263   2839495  
  1875.000000   2849075   2847818   2854031   2860165   2847385  
  1870.000000   2854919   2863414   2846881   2832915   2845169  
  1865.000000   2871576   2856440   2853725   2844219   2838562  
  1860.000000   2831629   2849072   2863618   2847941   2828947  
  1855.000000   2824828   2837436   2853575   2833722   2844533  
  1850.000000   2855188   2853182   2845189   2859955   2846564  
  1845.000000   2835577   2849153   2847800   2834892   2849079  
  1840.000000   2833402   2804873   2843204   2844995   2845612  
  1835.000000   2839155   2828454   2829694   2843526   2825399  
  1830.000000   2854225   2835338   2838760   2831698   2834448  
  1825.000000   2831510   2828465   2840084   2833949   2838678  
  1820.000000   2816770   2813929   2833009   2815937   2832850  
  1815.000000   2811990   2810577   2803225   2796663   2809397  
  1810.000000   2804078   2811006   2809351   2801327   2798096  
  1805.000000   2793167   2783880   2808818   2813844   2790085  
  1800.000000   2810638   2808648   2820074   2800256   2809717  
  1795.000000   2797964   2801050   2776717   2792541   2795183  
  1790.000000   2811610   2793365   2802238   2807581   2814125  
  1785.000000   2784277   2785008   2784322   2797634   2804805  
  1780.000000   2806758   2809666   2792870   2802507   2801692  
  1775.000000   2793135   2809123   2794752   2790615   2795424  
  1770.000000   2794644   2792215   2792989   2797207   2789851  
  1765.000000   2793182   2790692   2777114   2802709   2786208  
  1760.000000   2788315   2778581   2784507   2804696   2807924  
  1755.000000   2814063   2791583   2782456   2775747   2778784  
  1750.000000   2794325   2773972   2794775   2795814   2787223  
  1745.000000   2785946   2794514   2792501   2803192   2780244  
  1740.000000   2777670   2794254   2807262   2788022   2782659  
  1735.000000   2769919   2777485   2783767   2803812   2788795  
  1730.000000   2777913   2781058   2792813   2807685   2805003  
  1725.000000   2800539   2811262   2790578   2808261   2794933  
  1720.000000   2816566   2807012   2811943   2806110   2807124  
  1715.000000   2798619   2804770   2801754   2799297   2810749  
  1710.000000   2803335   2820092   2824779   2814646   2815532  
  1705.000000   2814724   2798318   2809720   2814682   2818411  
  1700.000000   2815035   2836955   2816386   2816069   2821128  
  1695.000000   2815172   2820591   2835715   2818619   2818226  
  1690.000000   2828083   2814268   2836792   2845451   2843516  
  1685.000000   2830104   2840413   2849808   2847328   2847592  
  1680.000000   2858199   2854459   2856175   2859728   2856415  
  1675.000000   2878922   2868847   2876637   2876387   2885840  
  1670.000000   2865781   2881158   2869839   2883265   2897282  
  1665.000000   2894820   2920692   2929097   2940063   2937003  
  1660.000000   2933703   2943430   2928714   2945291   2961394  
  1655.000000   2952419   2927494   2961375   2961613   2974832  
  1650.000000   2984381   3004929   2997621   3013438   3001733  
  1645.000000   3041693   3050721   3068960   3076883   3110108  
  1640.000000   3101346   3127823   3144316   3144605   3156516  
  1635.000000   3165394   3144996   3161573   3162582   3148495  
  1630.000000   3145521   3133156   3141036   3139438   3136930  
  1625.000000   3140831   3131737   3129579   3142108   3165888  
  1620.000000   3169167   3158360   3161724   3178782   3185625  
  1615.000000   3217930   3250335   3233518   3229200   3246442  
  1610.000000   3266035   3253975   3260054   3219162   3207069  
  1605.000000   3209103   3181234   3196135   3168220   3163224  
  1600.000000   3152185   3147616   3159489   3154810   3153873  
  1595.000000   3151225   3145281   3171577   3153963   3147923  
  1590.000000   3150458   3148332   3154082   3138556   3146702  
  1585.000000   3133308   3149247   3138886   3137977   3144695  
  1580.000000   3139589   3131233   3128553   3134495   3133567  
  1575.000000   3139877   3131106   3148176   3145266   3153514  
  1570.000000   3159352   3150876   3143074   3160396   3143950  
  1565.000000   3142288   3141970   3144782   3144315   3157046  
  1560.000000   3146328   3135182   3147878   3154196   3147706  
  1555.000000   3140822   3132865   3160092   3149063   3149165  
  1550.000000   3142387   3134095   3143668   3123928   3122250  
  1545.000000   3145669   3144798   3164694   3142229   3155244  
  1540.000000   3149846   3156360   3160036   3156445   3153398  
  1535.000000   3149890   3163025   3139306   3142652   3140067  
  1530.000000   3141516   3143780   3133546   3127659   3153103  
  1525.000000   3147103   3122011   3125353   3124350   3126170  
  1520.000000   3120709   3125058   3137344   3124061   3116547  
  1515.000000   3097622   3095424   3118480   3105552   3109653  
  1510.000000   3107327   3113152   3126351   3115765   3108923  
  1505.000000   3124048   3123488   3110632   3125323   3136138  
  1500.000000   3120485   3117117   3107295   3101240   3110510  
  1495.000000   3111739   3112047   3115979   3103292   3125591  
  1490.000000   3126092   3113706   3113303   3102428   3100602  
  1485.000000   3094682   3086008   3090283   3101480   3093260  
  1480.000000   3110266   3113928   3102420   3096156   3089650  
  1475.000000   3090161   3098794   3127301   3109694   3107884  
  1470.000000   3124385   3111685   3105211   3110953   3126894  
  1465.000000   3122349   3118925   3115877   3121330   3136455  
  1460.000000   3133606   3131466   3147668   3141608   3132717  
  1455.000000   3151769   3135425   3135071   3136776   3140762  
  1450.000000   3138196   3150451   3153127   3158655   3150177  
  1445.000000   3154051   3167333   3173479   3171109   3161842  
  1440.000000   3163627   3184565   3170290   3172456   3176010  
  1435.000000   3193988   3196380   3203572   3210501   3204951  
  1430.000000   3209592   3235540   3253705   3271389   3268506  
  1425.000000   3259296   3277449   3283031   3278926   3266349  
  1420.000000   3247459   3260404   3263384   3234493   3252387  
  1415.000000   3251560   3247672   3250207   3230514   3227462  
  1410.000000   3238868   3228922   3224391   3239194   3248866  
  1405.000000   3240918   3223294   3238974   3232239   3215982  
  1400.000000   3236890   3242432   3233914   3227154   3230314  
  1395.000000   3232331   3228640   3236511   3239976   3250870  
  1390.000000   3285670   3286030   3297046   3294308   3291889  
  1385.000000   3312252   3318633   3332112   3358597   3378131  
  1380.000000   3436467   3483330   3536840   3619491   3675088  
  1375.000000   3705895   3733150   3675067   3644731   3571796  
  1370.000000   3525376   3488809   3430612   3411890   3409439  
  1365.000000   3385572   3386811   3381999   3382446   3347722  
  1360.000000   3333119   3352439   3338041   3329280   3324207  
  1355.000000   3312270   3299679   3305121   3325479   3346404  
  1350.000000   3320860   3318668   3349402   3328136   3322871  
  1345.000000   3329006   3350374   3344724   3352407   3327683  
  1340.000000   3256475   3395657   3419043   3419592   3412176  
  1335.000000   3397885   3407044   3413794   3382749   3365883  
  1330.000000   3384227   3347965   3322764   3335684   3340284  
  1325.000000   3342445   3336279   3364990   3367511   3351793  
  1320.000000   3346125   3365812   3355199   3365858   3379340  
  1315.000000   3382177   3353542   3359110   3379733   3396822  
  1310.000000   3386608   3394510   3403871   3419763   3433819  
  1305.000000   3430149   3426156   3438152   3446514   3447092  
  1300.000000   3437273   3456866   3437579   3443520   3430611  
  1295.000000   3419999   3430253   3436501   3432853   3434469  
  1290.000000   3421495   3393676   3410760   3434279   3427719  
  1285.000000   3418126   3428985   3430454   3457565   3449995  
  1280.000000   3445876   3423543   3438977   3439631   3418578  
  1275.000000   3428948   3432911   3434058   3441466   3465821  
  1270.000000   3467612   3477013   3476835   3489277   3461043  
  1265.000000   3472069   3486886   3480225   3484764   3484635  
  1260.000000   3492330   3501116   3494113   3502247   3503751  
  1255.000000   3504088   3509229   3517102   3506492   3512030  
  1250.000000   3529062   3529951   3544852   3561386   3569080  
  1245.000000   3566407   3550791   3564555   3567960   3565822  
  1240.000000   3577170   3572839   3560169   3560051   3550284  
  1235.000000   3559098   3578341   3563141   3530009   3548507  
  1230.000000   3539042   3534238   3528834   3530126   3506450  
  1225.000000   3522740   3523204   3517903   3501166   3511079  
  1220.000000   3513978   3519545   3518937   3524456   3511788  
  1215.000000   3510876   3517455   3529918   3527716   3526925  
  1210.000000   3522461   3533489   3540967   3554569   3537694  
  1205.000000   3540118   3546195   3538475   3527858   3519254  
  1200.000000   3497604   3507804   3485442   3471319   3472517  
  1195.000000   3467898   3452477   3443123   3429196   3418578  
  1190.000000   3420592   3432726   3430509   3420338   3426958  
  1185.000000   3401921   3407033   3375704   3406353   3414096  
  1180.000000   3409871   3403373   3390047   3394990   3404149  
  1175.000000   3395539   3396957   3393030   3395774   3402804  
  1170.000000   3383298   3390143   3378235   3367942   3364978  
  1165.000000   3374370   3368525   3378904   3373090   3362365  
  1160.000000   3372409   3369686   3368674   3375062   3366847  
  1155.000000   3358204   3372776   3361683   3364323   3369099  
  1150.000000   3378828   3373286   3368897   3371989   3360696  
  1145.000000   3356144   3357370   3335814   3327499   3331669  
  1140.000000   3332867   3329197   3346491   3335314   3337166  
  1135.000000   3323960   3329642   3320653   3329947   3314135  
  1130.000000   3311378   3307374   3324708   3304369   3306532  
  1125.000000   3323808   3308035   3320352   3303563   3292434  
  1120.000000   3305286   3301106   3307715   3320453   3321996  
  1115.000000   3320088   3318862   3319818   3306479   3298541  
  1110.000000   3287172   3283449   3280266   3297183   3294559  
  1105.000000   3286135   3283920   3277270   3281329   3290391  
  1100.000000   3290708   3296342   3286890   3286061   3271250  
  1095.000000   3290984   3284296   3298332   3292382   3286792  
  1090.000000   3290458   3299437   3320502   3311760   3319760  
  1085.000000   3326997   3309388   3333370   3340866   3328185  
  1080.000000   3344759   3359499   3340998   3354428   3373046  
  1075.000000   3340925   3336494   3344574   3355314   3340686  
  1070.000000   3329004   3322592   3321323   3321296   3327364  
  1065.000000   3345986   3333196   3332484   3331329   3330163  
  1060.000000   3345275   3346987   3348779   3326281   3346389  
  1055.000000   3340903   3339938   3329940   3325056   3328413  
  1050.000000   3321723   3321445   3327910   3318323   3320543  
  1045.000000   3335833   3336046   3349247   3349539   3362682  
  1040.000000   3374346   3392315   3398610   3419246   3436828  
  1035.000000   3461623   3479986   3485007   3512537   3527469  
  1030.000000   3515875   3561830   3537499   3521691   3556452  
  1025.000000   3569762   3546288   3522778   3521842   3498690  
  1020.000000   3474311   3469727   3458203   3440759   3430280  
  1015.000000   3428767   3420191   3413477   3395206   3384644  
  1010.000000   3383193   3394228   3397302   3399637   3408327  
  1005.000000   3407672   3409052   3414094   3421904   3436773  
  1000.000000   3442520   3474382   3505896   3526334   3544458  
   995.000000   3570324   3591411   3600503   3613268   3628158  
   990.000000   3642639   3650459   3636935   3630819   3611014  
   985.000000   3579069   3575258   3559773   3542733   3523847  
   980.000000   3500844   3470341   3460903   3448220   3437983  
   975.000000   3434472   3415511   3388717   3396981   3377968  
   970.000000   3390018   3390353   3383804   3381653   3371540  
   965.000000   3369731   3373375   3379416   3387221   3415159  
   960.000000   3401715   3381343   3366077   3372224   3387687  
   955.000000   3390051   3406767   3411331   3399538   3397685  
   950.000000   3386009   3377095   3375970   3374487   3391306  
   945.000000   3398553   3399026   3400983   3394735   3397135  
   940.000000   3390639   3377243   3381699   3379101   3375099  
   935.000000   3393081   3386980   3386802   3385821   3385814  
   930.000000   3370963   3369052   3382047   3411568   3399611  
   925.000000   3403242   3395304   3378464   3392205   3402193  
   920.000000   3376441   3380635   3400971   3373841   3376202  
   915.000000   3370286   3377773   3387206   3388219   3394542  
   910.000000   3397276   3395775   3402715   3411029   3406578  
   905.000000   3410522   3408706   3399706   3404423   3411761  
   900.000000   3428980   3423599   3421237   3431432   3440116  
   895.000000   3439795   3429779   3446459   3433386   3427266  
   890.000000   3449615   3445409   3472909   3457135   3431599  
   885.000000   3426996   3458339   3451590   3468299   3479924  
   880.000000   3476212   3462598   3466849   3470917   3456399  
   875.000000   3461512   3475366   3487365   3488887   3490871  
   870.000000   3472751   3494694   3461111   3501077   3499128  
   865.000000   3490551   3468232   3473147   3496640   3510926  
   860.000000   3499934   3509818   3511819   3500444   3508273  
   855.000000   3517593   3521279   3511084   3508972   3541219  
   850.000000   3539760   3553251   3554124   3575478   3575802  
   845.000000   3592026   3617503   3638980   3653363   3710183  
   840.000000   3759526   3819804   3876371   3881412   3854885  
   835.000000   3811408   3751284   3704042   3636435   3616523  
   830.000000   3564203   3527466   3520359   3520273   3510126  
   825.000000   3525663   3531756   3536020   3543093   3520525  
   820.000000   3545435   3522645   3520731   3529411   3536761  
   815.000000   3526632   3536079   3549353   3552569   3530332  
   810.000000   3556731   3548915   3574675   3573619   3581313  
   805.000000   3582698   3596241   3622322   3605929   3622262  
   800.000000   3626177   3633980   3633755   3652885   3669925  
   795.000000   3656286   3666559   3649098   3621709   3600290  
   790.000000   3589789   3583885   3578933   3565985   3535831  
   785.000000   3548257   3551849   3536140   3518325   3524568  
   780.000000   3523827   3521427   3520388   3523378   3506435  
   775.000000   3508875   3522563   3524199   3521152   3525633  
   770.000000   3533141   3520115   3533312   3563527   3582255  
   765.000000   3590749   3606119   3641272   3673961   3716659  
   760.000000   3819042   3961373   4117640   4212578   4245779  
   755.000000   4243516   4234980   4147287   4082968   4026167  
   750.000000   3944956   3884988   3836926   3792920   3731263  
   745.000000   3705475   3680570   3668883   3653629   3685057  
   740.000000   3654700   3642775   3670991   3666187   3664304  
   735.000000   3689646   3756090   3874573   4004381   4201011  
   730.000000   4402341   4507510   4501726   4395843   4236261  
   725.000000   4070654   3945904   3856162   3807524   3750347  
   720.000000   3716222   3694469   3691590   3767887   3794903  
   715.000000   3836923   3899557   3932479   3957439   3962050  
   710.000000   3931474   3894448   3848130   3812263   3785270  
   705.000000   3742412   3715203   3672511   3674542   3657455  
   700.000000   3635210   3627480   3600134   3605637   3600172  
   695.000000   3608511   3623734   3612978   3614898   3614282  
   690.000000   3612103   3622180   3633612   3619867   3606694  
   685.000000   3592684   3588323   3572484   3578532   3582582  
   680.000000   3565765   3565747   3544586   3534007   3538166  
   675.000000   3522000   3521767   3533348   3520137   3531382  
   670.000000   3516659   3503502   3538895   3538788   3531434  
   665.000000   3559112   3551360   3538430   3542872   3545990  
   660.000000   3536593   3544238   3556754   3559369   3555197  
   655.000000   3574755   3573937   3563665   3560998   3583928  
   650.000000   3581975   3577001   3595022   3597884   3587462  
   645.000000   3592584   3567256   3580345   3595967   3586853  
   640.000000   3568209   3574354   3573991   3574460   3591474  
   635.000000   3588225   3588816   3583467   3566324   3568220  
   630.000000   3580005   3568724   3588559   3594180   3573143  
   625.000000   3566102   3557588   3561225   3562364   3536835  
   620.000000   3547583   3555845   3570020   3557405   3542902  
   615.000000   3546641   3552027   3539269   3540009   3570068  
   610.000000   3569452   3549646   3539882   3548340   3530672  
   605.000000   3536817   3524921   3523498   3516363   3505753  
   600.000000   3520488   3519323   3512894   3501803   3517523  
   595.000000   3500525   3519827   3524304   3526080   3531332  
   590.000000   3520062   3546758   3546498   3540471   3534396  
   585.000000   3535522   3529823   3533999   3536066   3540747  
   580.000000   3541512   3557592   3547420   3555184   3556729  
   575.000000   3560390   3528860   3514643   3528021   3522588  
   570.000000   3512489   3522944   3528895   3537001   3542355  
   565.000000   3538660   3542480   3553192   3550690   3557739  
   560.000000   3566507   3565277   3551122   3530088   3531992  
   555.000000   3549460   3566552   3561472   3556369   3567411  
   550.000000   3564359   3568638   3594327   3598245   3602221  
   545.000000   3611978   3639894   3630496   3668083   3658740  
   540.000000   3685284   3698956   3686006   3677615   3679932  
   535.000000   3688624   3698724   3687592   3664251   3653521  
   530.000000   3661696   3640090   3628896   3606728   3617068  
   525.000000   3635020   3625103   3608408   3595759   3590924  
   520.000000   3599253   3611581   3626242   3644056   3609489  
   515.000000   3649172   3674695   3697997   3726473   3687130  
   510.000000   3687518   3741906   3752675   3771195   3784834  
   505.000000   3795065   3813138   3838999   3874683   3901685  
   500.000000   3931443   3959899   3977966   4006705   4055325  
   495.000000   4092071   4083586   4129303   4112192   4185272  
   490.000000   4157471   4145964   4115610   4079444   4032445  
   485.000000   3982398   3946239   3914510   3874000   3846262  
   480.000000   3817020   3787902   3771013   3731657   3724585  
   475.000000   3697204   3664427   3694683   3639949   3650474  
   470.000000   3633375   3611697   3642472   3632066   3618990  
   465.000000   3624585   3608486   3603191   3603034   3590135  
   460.000000   3595066   3600130   3594253   3577569   3596280  
   455.000000   3577679   3602023   3621739   3594472   3578346  
   450.000000   3580048   3587298   3597758   3577200   3564236  
   445.000000   3589235   3576805   3612685   3583285   3557376  
   440.000000   3590706   3583529   3615586   3589845   3602168  
   435.000000   3602898   3582933   3589421   3611029   3613559  
   430.000000   3610996   3615740   3599976   3588883   3601678  
   425.000000   3620180   3596773   3605255   3623044   3637324  
   420.000000   3639692   3630575   3659073   3655146   3637813  
   415.000000   3646376   3656793   3659168   3664029   3661941  
   410.000000   3665668   3691509   3711253   3678940   3685573  
   405.000000   3669179   3671317   3687513   3693537   3712055  
   400.000000   3711254   3725917   3755232   3751273   3739433  
   395.000000   3766829   3790133   3810507   3861497   3963282  
   390.000000   4120289   4246554   4338631   4335378   4257572  
   385.000000   4175306   4066890   4000506   3937255   3910106  
   380.000000   3909438   3911790   3901381   3869677   3862102  
   375.000000   3879232   3871194   3865355   3848609   3851044  
   370.000000   3879821   3893968   3889144   3886365   3896634  
   365.000000   3917172   3919151   3973330   3984592   4012587  
   360.000000   4043012   4061634   4055962   4064480   4099501  
   355.000000   4134948   4158067   4185491   4195488   4205080  
   350.000000   4204112   4187007   4199804   4174756   4201852  
   345.000000   4196594   4177992   4172609   4169485   4183566  
   340.000000   4180507   4189744   4193112   4191616   4182162  
   335.000000   4193657   4166807   4178289   4186668   4223459  
   330.000000   4217335   4252942   4260344   4262823   4312015  
   325.000000   4356948   4362292   4373204   4429730   4459075  
   320.000000   4468941   4513058   4583554   4597840   4664479  
   315.000000   4729105   4784782   4875270   4959820   5047106  
   310.000000   5157931   5263556   5379817   5491767   5610280  
   305.000000   5716634   5797777   5965983   6138852   6377850  
   300.000000   6655055   6987300   7316273   7581155   7641299  
   295.000000   7495786   7155998   6762325   6376395   6104393  
   290.000000   5851495   5672815   5544371   5436948   5359589  
   285.000000   5283043   5235913   5223156   5203788   5159090  
   280.000000   5130680   5118868   5108268   5070328   5039061  
   275.000000   5012461   4961263   4953459   4928798   4915214  
   270.000000   4912676   4908183   4897964   4908041   4912664  
   265.000000   4944801   4926688   4898674   4910360   4879784  
   260.000000   4845253   4844209   4868807   4891348   4850330  
   255.000000   4842231   4852786   4850218   4853994   4842740  
   250.000000   4851391   4852735   4859385   4841217   4862031  
   245.000000   4879673   4878096   4868193   4859535   4869082  
   240.000000   4862438   4869478   4883770   4878812   4883353  
   235.000000   4874297   4899686   4908169   4923925   4930877  
   230.000000   4920094   4923750   4931190   4936663   4947075  
   225.000000   4960201   4955815   4959346   4964432   4971811  
   220.000000   5020724   5030300   5058728   5110144   5149204  
   215.000000   5182309   5219660   5275766   5284514   5260477  
   210.000000   5276049   5240848   5247616   5217350   5208127  
   205.000000   5207604   5189492   5182079   5159926   5149969  
   200.000000   5149334   5147542   5135655   5141831   5142144  
   195.000000   5152196   5147257   5149928   5151329   5174850  
   190.000000   5168232   5164617   5200687   5174044   5198101  
   185.000000   5204189   5192526   5184298   5190375   5246706  
   180.000000   5252771   5286707   5314808   5327508   5336695  
   175.000000   5366662   5414904   5432236   5496041   5563970  
   170.000000   5600529   5612499   5668775   5689189   5724456  
   165.000000   5764544   5815540   5880066   5934413   5999523  
   160.000000   6102967   6173679   6268782   6336522   6422389  
   155.000000   6546165   6596394   6708636   6809995   6924364  
   150.000000   7063253  
##END= 
